#  Energy (ev)    Absorption NP      Absorption MG
  9.5239900000e-01  6.1816667712e+20  2.0400716848e+19
  9.5811339400e-01  6.2176987228e+20  2.0691169294e+19
  9.6382778800e-01  6.2538076932e+20  2.0986021083e+19
  9.6954218200e-01  6.2900024396e+20  2.1285367464e+19
  9.7525657600e-01  6.3262919132e+20  2.1589305994e+19
  9.8097097000e-01  6.3626852731e+20  2.1897936594e+19
  9.8668536400e-01  6.3991918999e+20  2.2211361627e+19
  9.9239975800e-01  6.4358214026e+20  2.2529685960e+19
  9.9811415200e-01  6.4725836224e+20  2.2853017042e+19
  1.0038285460e+00  6.5094886343e+20  2.3181464976e+19
  1.0095429400e+00  6.5465467529e+20  2.3515142599e+19
  1.0152573340e+00  6.5837685437e+20  2.3854165561e+19
  1.0209717280e+00  6.6211648407e+20  2.4198652408e+19
  1.0266861220e+00  6.6587467640e+20  2.4548724667e+19
  1.0324005160e+00  6.6965257349e+20  2.4904506939e+19
  1.0381149100e+00  6.7345134844e+20  2.5266126982e+19
  1.0438293040e+00  6.7727220594e+20  2.5633715817e+19
  1.0495436980e+00  6.8111638288e+20  2.6007407816e+19
  1.0552580920e+00  6.8498514969e+20  2.6387340810e+19
  1.0609724860e+00  6.8887981220e+20  2.6773656192e+19
  1.0666868800e+00  6.9280171409e+20  2.7166499024e+19
  1.0724012740e+00  6.9675223908e+20  2.7566018152e+19
  1.0781156680e+00  7.0073281269e+20  2.7972366320e+19
  1.0838300620e+00  7.0474490348e+20  2.8385700292e+19
  1.0895444560e+00  7.0879002415e+20  2.8806180975e+19
  1.0952588500e+00  7.1286973301e+20  2.9233973549e+19
  1.1009732440e+00  7.1698563627e+20  2.9669247599e+19
  1.1066876380e+00  7.2113939099e+20  3.0112177253e+19
  1.1124020320e+00  7.2533270823e+20  3.0562941328e+19
  1.1181164260e+00  7.2956735593e+20  3.1021723471e+19
  1.1238308200e+00  7.3384516121e+20  3.1488712319e+19
  1.1295452140e+00  7.3816801226e+20  3.1964101655e+19
  1.1352596080e+00  7.4253786042e+20  3.2448090570e+19
  1.1409740020e+00  7.4695672299e+20  3.2940883634e+19
  1.1466883960e+00  7.5142668693e+20  3.3442691075e+19
  1.1524027900e+00  7.5594991308e+20  3.3953728957e+19
  1.1581171840e+00  7.6052864055e+20  3.4474219370e+19
  1.1638315780e+00  7.6516519047e+20  3.5004390627e+19
  1.1695459720e+00  7.6986196936e+20  3.5544477466e+19
  1.1752603660e+00  7.7462147231e+20  3.6094721258e+19
  1.1809747600e+00  7.7944628682e+20  3.6655370226e+19
  1.1866891540e+00  7.8433909749e+20  3.7226679672e+19
  1.1924035480e+00  7.8930269178e+20  3.7808912206e+19
  1.1981179420e+00  7.9433996623e+20  3.8402337994e+19
  1.2038323360e+00  7.9945393243e+20  3.9007235002e+19
  1.2095467300e+00  8.0464772255e+20  3.9623889261e+19
  1.2152611240e+00  8.0992459461e+20  4.0252595135e+19
  1.2209755180e+00  8.1528793794e+20  4.0893655601e+19
  1.2266899120e+00  8.2074127978e+20  4.1547382536e+19
  1.2324043060e+00  8.2628829308e+20  4.2214097020e+19
  1.2381187000e+00  8.3193280527e+20  4.2894129646e+19
  1.2438330940e+00  8.3767880738e+20  4.3587820841e+19
  1.2495474880e+00  8.4353046286e+20  4.4295521206e+19
  1.2552618820e+00  8.4949211612e+20  4.5017591856e+19
  1.2609762760e+00  8.5556830111e+20  4.5754404784e+19
  1.2666906700e+00  8.6176375087e+20  4.6506343233e+19
  1.2724050640e+00  8.6808340856e+20  4.7273802081e+19
  1.2781194580e+00  8.7453244006e+20  4.8057188246e+19
  1.2838338520e+00  8.8111624745e+20  4.8856921097e+19
  1.2895482460e+00  8.8784048294e+20  4.9673432889e+19
  1.2952626400e+00  8.9471106243e+20  5.0507169207e+19
  1.3009770340e+00  9.0173417933e+20  5.1358589433e+19
  1.3066914280e+00  9.0891631905e+20  5.2228167221e+19
  1.3124058220e+00  9.1626427530e+20  5.3116391004e+19
  1.3181202160e+00  9.2378516842e+20  5.4023764500e+19
  1.3238346100e+00  9.3148646553e+20  5.4950807257e+19
  1.3295490040e+00  9.3937600178e+20  5.5898055203e+19
  1.3352633980e+00  9.4746200204e+20  5.6866061220e+19
  1.3409777920e+00  9.5575310282e+20  5.7855395747e+19
  1.3466921860e+00  9.6425837505e+20  5.8866647390e+19
  1.3524065800e+00  9.7298734875e+20  5.9900423567e+19
  1.3581209740e+00  9.8195004038e+20  6.0957351171e+19
  1.3638353680e+00  9.9115698288e+20  6.2038077253e+19
  1.3695497620e+00  1.0006192581e+21  6.3143269740e+19
  1.3752641560e+00  1.0103485303e+21  6.4273618165e+19
  1.3809785500e+00  1.0203570809e+21  6.5429834432e+19
  1.3866929440e+00  1.0306578441e+21  6.6612653606e+19
  1.3924073380e+00  1.0412644446e+21  6.7822834728e+19
  1.3981217320e+00  1.0521912384e+21  6.9061161659e+19
  1.4038361260e+00  1.0634533575e+21  7.0328443950e+19
  1.4095505200e+00  1.0750667581e+21  7.1625517749e+19
  1.4152649140e+00  1.0870482713e+21  7.2953246728e+19
  1.4209793080e+00  1.0994156553e+21  7.4312523047e+19
  1.4266937020e+00  1.1121876495e+21  7.5704268345e+19
  1.4324080960e+00  1.1253840303e+21  7.7129434764e+19
  1.4381224900e+00  1.1390256698e+21  7.8589006005e+19
  1.4438368840e+00  1.1531345992e+21  8.0083998413e+19
  1.4495512780e+00  1.1677340758e+21  8.1615462098e+19
  1.4552656720e+00  1.1828486532e+21  8.3184482084e+19
  1.4609800660e+00  1.1985042532e+21  8.4792179490e+19
  1.4666944600e+00  1.2147282379e+21  8.6439712748e+19
  1.4724088540e+00  1.2315494819e+21  8.8128278842e+19
  1.4781232480e+00  1.2489984453e+21  8.9859114589e+19
  1.4838376420e+00  1.2671072471e+21  9.1633497939e+19
  1.4895520360e+00  1.2859097395e+21  9.3452749306e+19
  1.4952664300e+00  1.3054415807e+21  9.5318232933e+19
  1.5009808240e+00  1.3257403031e+21  9.7231358269e+19
  1.5066952180e+00  1.3468453741e+21  9.9193581378e+19
  1.5124096120e+00  1.3687982449e+21  1.0120640636e+20
  1.5181240060e+00  1.3916423865e+21  1.0327138680e+20
  1.5238384000e+00  1.4154233084e+21  1.0539012722e+20
  1.5295527940e+00  1.4401885574e+21  1.0756428453e+20
  1.5352671880e+00  1.4659876896e+21  1.0979556949e+20
  1.5409815820e+00  1.4928722082e+21  1.1208574821e+20
  1.5466959760e+00  1.5208954536e+21  1.1443664354e+20
  1.5524103700e+00  1.5501124375e+21  1.1685013655e+20
  1.5581247640e+00  1.5805796049e+21  1.1932816791e+20
  1.5638391580e+00  1.6123545108e+21  1.2187273926e+20
  1.5695535520e+00  1.6454953958e+21  1.2448591455e+20
  1.5752679460e+00  1.6800606381e+21  1.2716982127e+20
  1.5809823400e+00  1.7161080572e+21  1.2992665164e+20
  1.5866967340e+00  1.7536940374e+21  1.3275866369e+20
  1.5924111280e+00  1.7928724349e+21  1.3566818226e+20
  1.5981255220e+00  1.8336932313e+21  1.3865759980e+20
  1.6038399160e+00  1.8762008895e+21  1.4172937708e+20
  1.6095543100e+00  1.9204323698e+21  1.4488604373e+20
  1.6152687040e+00  1.9664147558e+21  1.4813019844e+20
  1.6209830980e+00  2.0141624398e+21  1.5146450913e+20
  1.6266974920e+00  2.0636738143e+21  1.5489171263e+20
  1.6324118860e+00  2.1149274212e+21  1.5841461419e+20
  1.6381262800e+00  2.1678775205e+21  1.6203608657e+20
  1.6438406740e+00  2.2224490600e+21  1.6575906875e+20
  1.6495550680e+00  2.2785320577e+21  1.6958656413e+20
  1.6552694620e+00  2.3359754447e+21  1.7352163831e+20
  1.6609838560e+00  2.3945804753e+21  1.7756741618e+20
  1.6666982500e+00  2.4540938745e+21  1.8172707848e+20
  1.6724126440e+00  2.5142009885e+21  1.8600385756e+20
  1.6781270380e+00  2.5745193081e+21  1.9040103239e+20
  1.6838414320e+00  2.6345928686e+21  1.9492192264e+20
  1.6895558260e+00  2.6938881579e+21  1.9956988188e+20
  1.6952702200e+00  2.7517922975e+21  2.0434828960e+20
  1.7009846140e+00  2.8076143568e+21  2.0926054212e+20
  1.7066990080e+00  2.8605907026e+21  2.1431004219e+20
  1.7124134020e+00  2.9098952453e+21  2.1950018718e+20
  1.7181277960e+00  2.9546552766e+21  2.2483435575e+20
  1.7238421900e+00  2.9939732874e+21  2.3031589286e+20
  1.7295565840e+00  3.0269546807e+21  2.3594809294e+20
  1.7352709780e+00  3.0527406751e+21  2.4173418118e+20
  1.7409853720e+00  3.0705449679e+21  2.4767729272e+20
  1.7466997660e+00  3.0796919888e+21  2.5378044960e+20
  1.7524141600e+00  3.0796539496e+21  2.6004653539e+20
  1.7581285540e+00  3.0700835211e+21  2.6647826732e+20
  1.7638429480e+00  3.0508389680e+21  2.7307816572e+20
  1.7695573420e+00  3.0219990156e+21  2.7984852084e+20
  1.7752717360e+00  2.9838655926e+21  2.8679135671e+20
  1.7809861300e+00  2.9369537910e+21  2.9390839218e+20
  1.7867005240e+00  2.8819697204e+21  3.0120099884e+20
  1.7924149180e+00  2.8197781989e+21  3.0867015614e+20
  1.7981293120e+00  2.7513632039e+21  3.1631640333e+20
  1.8038437060e+00  2.6777845585e+21  3.2413978860e+20
  1.8095581000e+00  2.6001343969e+21  3.3213981541e+20
  1.8152724940e+00  2.5194965731e+21  3.4031538618e+20
  1.8209868880e+00  2.4369114697e+21  3.4866474370e+20
  1.8267012820e+00  2.3533477822e+21  3.5718541051e+20
  1.8324156760e+00  2.2696819618e+21  3.6587412677e+20
  1.8381300700e+00  2.1866852180e+21  3.7472678713e+20
  1.8438444640e+00  2.1050173890e+21  3.8373837731e+20
  1.8495588580e+00  2.0252266143e+21  3.9290291113e+20
  1.8552732520e+00  1.9477535610e+21  4.0221336891e+20
  1.8609876460e+00  1.8729389440e+21  4.1166163829e+20
  1.8667020400e+00  1.8010331744e+21  4.2123845865e+20
  1.8724164340e+00  1.7322071421e+21  4.3093337035e+20
  1.8781308280e+00  1.6665633337e+21  4.4073467024e+20
  1.8838452220e+00  1.6041466929e+21  4.5062937486e+20
  1.8895596160e+00  1.5449548156e+21  4.6060319292e+20
  1.8952740100e+00  1.4889472288e+21  4.7064050861e+20
  1.9009884040e+00  1.4360536245e+21  4.8072437732e+20
  1.9067027980e+00  1.3861810117e+21  4.9083653524e+20
  1.9124171920e+00  1.3392198090e+21  5.0095742439e+20
  1.9181315860e+00  1.2950489433e+21  5.1106623419e+20
  1.9238459800e+00  1.2535400431e+21  5.2114096070e+20
  1.9295603740e+00  1.2145608291e+21  5.3115848427e+20
  1.9352747680e+00  1.1779778102e+21  5.4109466597e+20
  1.9409891620e+00  1.1436583889e+21  5.5092446294e+20
  1.9467035560e+00  1.1114724728e+21  5.6062206201e+20
  1.9524179500e+00  1.0812936770e+21  5.7016103083e+20
  1.9581323440e+00  1.0530001891e+21  5.7951448505e+20
  1.9638467380e+00  1.0264753603e+21  5.8865526957e+20
  1.9695611320e+00  1.0016080750e+21  5.9755615138e+20
  1.9752755260e+00  9.7829294695e+20  6.0619002127e+20
  1.9809899200e+00  9.5643038103e+20  6.1453010104e+20
  1.9867043140e+00  9.3592653548e+20  6.2255015271e+20
  1.9924187080e+00  9.1669321010e+20  6.3022468611e+20
  1.9981331020e+00  8.9864768019e+20  6.3752916099e+20
  2.0038474960e+00  8.8171249066e+20  6.4444018024e+20
  2.0095618900e+00  8.6581522162e+20  6.5093567057e+20
  2.0152762840e+00  8.5088823582e+20  6.5699504782e+20
  2.0209906780e+00  8.3686841699e+20  6.6259936437e+20
  2.0267050720e+00  8.2369690738e+20  6.6773143651e+20
  2.0324194660e+00  8.1131885020e+20  6.7237595072e+20
  2.0381338600e+00  7.9968313998e+20  6.7651954802e+20
  2.0438482540e+00  7.8874218185e+20  6.8015088656e+20
  2.0495626480e+00  7.7845165952e+20  6.8326068298e+20
  2.0552770420e+00  7.6877031213e+20  6.8584173377e+20
  2.0609914360e+00  7.5965972142e+20  6.8788891835e+20
  2.0667058300e+00  7.5108411086e+20  6.8939918557e+20
  2.0724202240e+00  7.4301015835e+20  6.9037152590e+20
  2.0781346180e+00  7.3540682287e+20  6.9080693141e+20
  2.0838490120e+00  7.2824518363e+20  6.9070834542e+20
  2.0895634060e+00  7.2149828989e+20  6.9008060381e+20
  2.0952778000e+00  7.1514101956e+20  6.8893036932e+20
  2.1009921940e+00  7.0914994598e+20  6.8726606015e+20
  2.1067065880e+00  7.0350321334e+20  6.8509777359e+20
  2.1124209820e+00  6.9818042179e+20  6.8243720515e+20
  2.1181353760e+00  6.9316252265e+20  6.7929756328e+20
  2.1238497700e+00  6.8843172289e+20  6.7569347963e+20
  2.1295641640e+00  6.8397139718e+20  6.7164091461e+20
  2.1352785580e+00  6.7976600570e+20  6.6715705785e+20
  2.1409929520e+00  6.7580101633e+20  6.6226022332e+20
  2.1467073460e+00  6.7206283137e+20  6.5696973893e+20
  2.1524217400e+00  6.6853871964e+20  6.5130583065e+20
  2.1581361340e+00  6.6521675470e+20  6.4528950130e+20
  2.1638505280e+00  6.6208575941e+20  6.3894240474e+20
  2.1695649220e+00  6.5913525561e+20  6.3228671604e+20
  2.1752793160e+00  6.5635541745e+20  6.2534499886e+20
  2.1809937100e+00  6.5373702688e+20  6.1814007138e+20
  2.1867081040e+00  6.5127143098e+20  6.1069487212e+20
  2.1924224980e+00  6.4895050171e+20  6.0303232736e+20
  2.1981368920e+00  6.4676659896e+20  5.9517522188e+20
  2.2038512860e+00  6.4471253781e+20  5.8714607451e+20
  2.2095656800e+00  6.4278155945e+20  5.7896702019e+20
  2.2152800740e+00  6.4096730473e+20  5.7065969987e+20
  2.2209944680e+00  6.3926378892e+20  5.6224515955e+20
  2.2267088620e+00  6.3766537686e+20  5.5374375939e+20
  2.2324232560e+00  6.3616675885e+20  5.4517509370e+20
  2.2381376500e+00  6.3476292789e+20  5.3655792232e+20
  2.2438520440e+00  6.3344915954e+20  5.2791011357e+20
  2.2495664380e+00  6.3222099460e+20  5.1924859884e+20
  2.2552808320e+00  6.3107422382e+20  5.1058933849e+20
  2.2609952260e+00  6.3000487376e+20  5.0194729880e+20
  2.2667096200e+00  6.2900919249e+20  4.9333643923e+20
  2.2724240140e+00  6.2808363498e+20  4.8476970927e+20
  2.2781384080e+00  6.2722484875e+20  4.7625905417e+20
  2.2838528020e+00  6.2642966092e+20  4.6781542850e+20
  2.2895671960e+00  6.2569506712e+20  4.5944881674e+20
  2.2952815900e+00  6.2501822250e+20  4.5116825980e+20
  2.3009959840e+00  6.2439643371e+20  4.4298188670e+20
  2.3067103780e+00  6.2382715092e+20  4.3489695029e+20
  2.3124247720e+00  6.2330795921e+20  4.2691986639e+20
  2.3181391660e+00  6.2283656934e+20  4.1905625530e+20
  2.3238535600e+00  6.2241080901e+20  4.1131098513e+20
  2.3295679540e+00  6.2202861531e+20  4.0368821613e+20
  2.3352823480e+00  6.2168802895e+20  3.9619144559e+20
  2.3409967420e+00  6.2138718969e+20  3.8882355258e+20
  2.3467111360e+00  6.2112433205e+20  3.8158684229e+20
  2.3524255300e+00  6.2089778053e+20  3.7448308945e+20
  2.3581399240e+00  6.2070594379e+20  3.6751358055e+20
  2.3638543180e+00  6.2054730861e+20  3.6067915466e+20
  2.3695687120e+00  6.2042043441e+20  3.5398024257e+20
  2.3752831060e+00  6.2032394907e+20  3.4741690415e+20
  2.3809975000e+00  6.2025654610e+20  3.4098886385e+20
  2.3867118940e+00  6.2021698254e+20  3.3469554417e+20
  2.3924262880e+00  6.2020407649e+20  3.2853609722e+20
  2.3981406820e+00  6.2021670381e+20  3.2250943421e+20
  2.4038550760e+00  6.2025379394e+20  3.1661425298e+20
  2.4095694700e+00  6.2031432574e+20  3.1084906362e+20
  2.4152838640e+00  6.2039732417e+20  3.0521221216e+20
  2.4209982580e+00  6.2050185822e+20  2.9970190244e+20
  2.4267126520e+00  6.2062703978e+20  2.9431621623e+20
  2.4324270460e+00  6.2077202276e+20  2.8905313172e+20
  2.4381414400e+00  6.2093600145e+20  2.8391054035e+20
  2.4438558340e+00  6.2111820783e+20  2.7888626220e+20
  2.4495702280e+00  6.2131790854e+20  2.7397805997e+20
  2.4552846220e+00  6.2153440189e+20  2.6918365163e+20
  2.4609990160e+00  6.2176701610e+20  2.6450072182e+20
  2.4667134100e+00  6.2201510857e+20  2.5992693216e+20
  2.4724278040e+00  6.2227806569e+20  2.5545993043e+20
  2.4781421980e+00  6.2255530242e+20  2.5109735886e+20
  2.4838565920e+00  6.2284626089e+20  2.4683686142e+20
  2.4895709860e+00  6.2315040818e+20  2.4267609032e+20
  2.4952853800e+00  6.2346723385e+20  2.3861271182e+20
  2.5009997740e+00  6.2379624813e+20  2.3464441119e+20
  2.5067141680e+00  6.2413698109e+20  2.3076889714e+20
  2.5124285620e+00  6.2448898282e+20  2.2698390570e+20
  2.5181429560e+00  6.2485182366e+20  2.2328720342e+20
  2.5238573500e+00  6.2522509379e+20  2.1967659030e+20
  2.5295717440e+00  6.2560840190e+20  2.1614990209e+20
  2.5352861380e+00  6.2600137317e+20  2.1270501232e+20
  2.5410005320e+00  6.2640364746e+20  2.0933983396e+20
  2.5467149260e+00  6.2681487826e+20  2.0605232071e+20
  2.5524293200e+00  6.2723473276e+20  2.0284046810e+20
  2.5581437140e+00  6.2766289237e+20  1.9970231421e+20
  2.5638581080e+00  6.2809905300e+20  1.9663594028e+20
  2.5695725020e+00  6.2854292462e+20  1.9363947107e+20
  2.5752868960e+00  6.2899422971e+20  1.9071107504e+20
  2.5810012900e+00  6.2945270163e+20  1.8784896435e+20
  2.5867156840e+00  6.2991808331e+20  1.8505139478e+20
  2.5924300780e+00  6.3039012695e+20  1.8231666550e+20
  2.5981444720e+00  6.3086859454e+20  1.7964311868e+20
  2.6038588660e+00  6.3135325858e+20  1.7702913912e+20
  2.6095732600e+00  6.3184390223e+20  1.7447315370e+20
  2.6152876540e+00  6.3234031854e+20  1.7197363078e+20
  2.6210020480e+00  6.3284230897e+20  1.6952907962e+20
  2.6267164420e+00  6.3334968197e+20  1.6713804964e+20
  2.6324308360e+00  6.3386225234e+20  1.6479912969e+20
  2.6381452300e+00  6.3437984140e+20  1.6251094734e+20
  2.6438596240e+00  6.3490227788e+20  1.6027216803e+20
  2.6495740180e+00  6.3542939850e+20  1.5808149430e+20
  2.6552884120e+00  6.3596104785e+20  1.5593766493e+20
  2.6610028060e+00  6.3649707741e+20  1.5383945416e+20
  2.6667172000e+00  6.3703734410e+20  1.5178567077e+20
  2.6724315940e+00  6.3758170929e+20  1.4977515731e+20
  2.6781459880e+00  6.3813003864e+20  1.4780678918e+20
  2.6838603820e+00  6.3868220273e+20  1.4587947387e+20
  2.6895747760e+00  6.3923807795e+20  1.4399215003e+20
  2.6952891700e+00  6.3979754694e+20  1.4214378672e+20
  2.7010035640e+00  6.4036049807e+20  1.4033338252e+20
  2.7067179580e+00  6.4092682434e+20  1.3855996478e+20
  2.7124323520e+00  6.4149642210e+20  1.3682258878e+20
  2.7181467460e+00  6.4206919050e+20  1.3512033694e+20
  2.7238611400e+00  6.4264503175e+20  1.3345231809e+20
  2.7295755340e+00  6.4322385207e+20  1.3181766666e+20
  2.7352899280e+00  6.4380556240e+20  1.3021554198e+20
  2.7410043220e+00  6.4439007856e+20  1.2864512752e+20
  2.7467187160e+00  6.4497732042e+20  1.2710563021e+20
  2.7524331100e+00  6.4556721074e+20  1.2559627973e+20
  2.7581475040e+00  6.4615967423e+20  1.2411632783e+20
  2.7638618980e+00  6.4675463735e+20  1.2266504770e+20
  2.7695762920e+00  6.4735202905e+20  1.2124173328e+20
  2.7752906860e+00  6.4795178167e+20  1.1984569867e+20
  2.7810050800e+00  6.4855383149e+20  1.1847627751e+20
  2.7867194740e+00  6.4915811852e+20  1.1713282239e+20
  2.7924338680e+00  6.4976458545e+20  1.1581470427e+20
  2.7981482620e+00  6.5037317655e+20  1.1452131193e+20
  2.8038626560e+00  6.5098383712e+20  1.1325205142e+20
  2.8095770500e+00  6.5159651372e+20  1.1200634551e+20
  2.8152914440e+00  6.5221115510e+20  1.1078363323e+20
  2.8210058380e+00  6.5282771303e+20  1.0958336934e+20
  2.8267202320e+00  6.5344614255e+20  1.0840502383e+20
  2.8324346260e+00  6.5406640138e+20  1.0724808150e+20
  2.8381490200e+00  6.5468844881e+20  1.0611204147e+20
  2.8438634140e+00  6.5531224480e+20  1.0499641676e+20
  2.8495778080e+00  6.5593774981e+20  1.0390073385e+20
  2.8552922020e+00  6.5656492540e+20  1.0282453228e+20
  2.8610065960e+00  6.5719373523e+20  1.0176736423e+20
  2.8667209900e+00  6.5782414567e+20  1.0072879418e+20
  2.8724353840e+00  6.5845612570e+20  9.9708398482e+19
  2.8781497780e+00  6.5908964606e+20  9.8705765025e+19
  2.8838641720e+00  6.5972467817e+20  9.7720492880e+19
  2.8895785660e+00  6.6036119351e+20  9.6752191958e+19
  2.8952929600e+00  6.6099916391e+20  9.5800482680e+19
  2.9010073540e+00  6.6163856230e+20  9.4864995663e+19
  2.9067217480e+00  6.6227936372e+20  9.3945371404e+19
  2.9124361420e+00  6.6292154560e+20  9.3041259990e+19
  2.9181505360e+00  6.6356508728e+20  9.2152320802e+19
  2.9238649300e+00  6.6420996907e+20  9.1278222238e+19
  2.9295793240e+00  6.6485617128e+20  9.0418641445e+19
  2.9352937180e+00  6.6550367401e+20  8.9573264053e+19
  2.9410081120e+00  6.6615245771e+20  8.8741783921e+19
  2.9467225060e+00  6.6680250414e+20  8.7923902899e+19
  2.9524369000e+00  6.6745379710e+20  8.7119330579e+19
  2.9581512940e+00  6.6810632238e+20  8.6327784077e+19
  2.9638656880e+00  6.6876006704e+20  8.5548987802e+19
  2.9695800820e+00  6.6941501839e+20  8.4782673243e+19
  2.9752944760e+00  6.7007116331e+20  8.4028578765e+19
  2.9810088700e+00  6.7072848846e+20  8.3286449401e+19
  2.9867232640e+00  6.7138698102e+20  8.2556036661e+19
  2.9924376580e+00  6.7204662966e+20  8.1837098341e+19
  2.9981520520e+00  6.7270742496e+20  8.1129398343e+19
  3.0038664460e+00  6.7336935904e+20  8.0432706493e+19
  3.0095808400e+00  6.7403242465e+20  7.9746798374e+19
  3.0152952340e+00  6.7469661422e+20  7.9071455160e+19
