#  Energy (ev)    Absorption NP      Absorption MG
<<<<<<< HEAD
  9.5239900000e-01  1.0556772928e+30  3.6102867652e+28
  9.5811339400e-01  8.1562319790e+29  3.1974791851e+28
  9.6382778800e-01  6.1336839408e+29  2.5494513262e+28
  9.6954218200e-01  4.8907477625e+29  1.7758910124e+28
  9.7525657600e-01  4.7168745339e+29  1.0148357144e+28
  9.8097097000e-01  5.7338014668e+29  4.1016252442e+27
  9.8668536400e-01  7.8659271827e+29  8.6804815651e+26
  9.9239975800e-01  1.0843055115e+30  1.2790038955e+27
  9.9811415200e-01  1.4236713968e+30  5.5796951512e+27
  1.0038285460e+00  1.7525546409e+30  1.3353925838e+28
  1.0095429400e+00  2.0180020879e+30  2.3560118867e+28
  1.0152573340e+00  2.1752894277e+30  3.4678394944e+28
  1.0209717280e+00  2.1960167565e+30  4.4949138335e+28
  1.0266861220e+00  2.0738132099e+30  5.2666447687e+28
  1.0324005160e+00  1.8265483939e+30  5.6478308052e+28
  1.0381149100e+00  1.4944932489e+30  5.5641535416e+28
  1.0438293040e+00  1.1345414574e+30  5.0184614418e+28
  1.0495436980e+00  8.1128565016e+29  4.0945063825e+28
  1.0552580920e+00  5.8632353791e+29  2.9468018343e+28
  1.0609724860e+00  5.0754253451e+29  1.7776164346e+28
  1.0666868800e+00  6.0022272923e+29  8.0441076295e+27
  1.0724012740e+00  8.6157739750e+29  2.2286615812e+27
  1.0781156680e+00  1.2598400299e+30  1.7169789129e+27
  1.0838300620e+00  1.7382805249e+30  7.0546697563e+27
  1.0895444560e+00  2.2237050012e+30  1.7805473312e+28
  1.0952588500e+00  2.6382011032e+30  3.2573945972e+28
  1.1009732440e+00  2.9122718266e+30  4.9195985945e+28
  1.1066876380e+00  2.9971707960e+30  6.5073116581e+28
  1.1124020320e+00  2.8742815771e+30  7.7600198606e+28
  1.1181164260e+00  2.5597855568e+30  8.4617333927e+28
  1.1238308200e+00  2.1035863076e+30  8.4808830751e+28
  1.1295452140e+00  1.5823944952e+30  7.7977172649e+28
  1.1352596080e+00  1.0878757403e+30  6.5137776587e+28
  1.1409740020e+00  7.1165579976e+29  4.8408515726e+28
  1.1466883960e+00  5.2960450122e+29  3.0702179507e+28
  1.1524027900e+00  5.8806138614e+29  1.5264635419e+28
  1.1581171840e+00  8.9446178499e+29  5.1304707980e+27
  1.1638315780e+00  1.4141855484e+30  2.5860093337e+27
  1.1695459720e+00  2.0744703450e+30  8.7331046293e+27
  1.1752603660e+00  2.7750591141e+30  2.3234635579e+28
  1.1809747600e+00  3.4040790632e+30  4.4295483148e+28
  1.1866891540e+00  3.8566788868e+30  6.8894879364e+28
  1.1924035480e+00  4.0533581135e+30  9.3243374436e+28
  1.1981179420e+00  3.9548276571e+30  1.1339739012e+29
  1.2038323360e+00  3.5706840064e+30  1.2593350410e+29
  1.2095467300e+00  2.9601107785e+30  1.2856906639e+29
  1.2152611240e+00  2.2241040997e+30  1.2061897576e+29
  1.2209755180e+00  1.4901491149e+30  1.0320087576e+29
  1.2266899120e+00  8.9161528750e+29  7.9139806030e+28
  1.2324043060e+00  5.4515360704e+29  5.2572637093e+28
  1.2381187000e+00  5.2987944523e+29  2.8304474016e+28
  1.2438330940e+00  8.7199996960e+29  1.1014826945e+28
  1.2495474880e+00  1.5377861648e+30  4.4425166179e+27
  1.2552618820e+00  2.4364964548e+30  1.0688870638e+28
  1.2609762760e+00  3.4332279632e+30  2.9765854399e+28
  1.2666906700e+00  4.3699662776e+30  5.9480345779e+28
  1.2724050640e+00  5.0916142544e+30  9.5692711647e+28
  1.2781194580e+00  5.4727709625e+30  1.3292537559e+29
  1.2838338520e+00  5.4406996353e+30  1.6523543371e+29
  1.2895482460e+00  4.9903580247e+30  1.8721523192e+29
  1.2952626400e+00  4.1885281697e+30  1.9495540738e+29
  1.3009770340e+00  3.1658107556e+30  1.8680238689e+29
  1.3066914280e+00  2.0972726785e+30  1.6376860207e+29
  1.3124058220e+00  1.1745222595e+30  1.2950575264e+29
  1.3181202160e+00  5.7359230572e+29  8.9821763621e+28
  1.3238346100e+00  4.2394307868e+29  5.1799541111e+28
  1.3295490040e+00  7.8396274043e+29  2.2647311711e+28
  1.3352633980e+00  1.6274887871e+30  8.4636118999e+27
  1.3409777920e+00  2.8442021843e+30  1.3124728838e+28
  1.3466921860e+00  4.2545033698e+30  3.7492788288e+28
  1.3524065800e+00  5.6370227831e+30  7.9098517283e+28
  1.3581209740e+00  6.7646589705e+30  1.3237967058e+29
  1.3638353680e+00  7.4433717229e+30  1.8946514777e+29
  1.3695497620e+00  7.5472008564e+30  2.4140055513e+29
  1.3752641560e+00  7.0433075489e+30  2.7962935788e+29
  1.3809785500e+00  6.0022419386e+30  2.9748950569e+29
  1.3866929440e+00  4.5909400584e+30  2.9146929986e+29
  1.3924073380e+00  3.0487949974e+30  2.6199317702e+29
  1.3981217320e+00  1.6500711048e+30  2.1357579197e+29
  1.4038361260e+00  6.5843883687e+29  1.5428197607e+29
  1.4095505200e+00  2.8105068134e+29  9.4545614211e+28
  1.4152649140e+00  6.3003050909e+29  4.5513386535e+28
  1.4209793080e+00  1.6983724659e+30  1.7170213571e+28
  1.4266937020e+00  3.3551244857e+30  1.6555350363e+28
  1.4324080960e+00  5.3616663903e+30  4.6380302825e+28
  1.4381224900e+00  7.4073608967e+30  1.0430887976e+29
  1.4438368840e+00  9.1594393047e+30  1.8306141213e+29
  1.4495512780e+00  1.0319273679e+31  2.7137353697e+29
  1.4552656720e+00  1.0675684677e+31  3.5569550749e+29
  1.4609800660e+00  1.0145958534e+31  4.2238465532e+29
  1.4666944600e+00  8.7968728517e+30  4.6004476978e+29
  1.4724088540e+00  6.8410633383e+30  4.6162061983e+29
  1.4781232480e+00  4.6080561190e+30  4.2587448480e+29
  1.4838376420e+00  2.4936089978e+30  3.5795494802e+29
  1.4895520360e+00  8.9492716555e+29  2.6890593830e+29
  1.4952664300e+00  1.4215139321e+29  1.7413583153e+29
  1.5009808240e+00  4.3771641324e+29  9.1045128504e+28
  1.5066952180e+00  1.8144510994e+30  3.6166823599e+28
  1.5124096120e+00  4.1206609819e+30  2.2278244489e+28
  1.5181240060e+00  7.0362451819e+30  5.5976045598e+28
  1.5238384000e+00  1.0118786621e+31  1.3615727715e+29
  1.5295527940e+00  1.2873341412e+31  2.5372237795e+29
  1.5352671880e+00  1.4835227821e+31  3.9262736990e+29
  1.5409815820e+00  1.5652278523e+31  5.3219070573e+29
  1.5466959760e+00  1.5152346328e+31  6.5034071333e+29
  1.5524103700e+00  1.3383580005e+31  7.2730973122e+29
  1.5581247640e+00  1.0618953488e+31  7.4917375691e+29
  1.5638391580e+00  7.3221874707e+30  7.1062440206e+29
  1.5695535520e+00  4.0786763746e+30  6.1645115081e+29
  1.5752679460e+00  1.5012656943e+30  4.8139740539e+29
  1.5809823400e+00  1.2563473464e+29  3.2830817474e+29
  1.5866967340e+00  3.1271048304e+29  1.8477191375e+29
  1.5924111280e+00  2.1753806221e+30  7.8727823925e+28
  1.5981255220e+00  5.5436456233e+30  3.3716501761e+28
  1.6038399160e+00  9.9766072373e+30  6.4557315776e+28
  1.6095543100e+00  1.4822155831e+31  1.7421596159e+29
  1.6152687040e+00  1.9317069044e+31  3.5247545420e+29
  1.6209830980e+00  2.2712822613e+31  5.7676008872e+29
  1.6266974920e+00  2.4407052057e+31  8.1512149314e+29
  1.6324118860e+00  2.4058335170e+31  1.0310309293e+30
  1.6381262800e+00  2.1663373677e+31  1.1892921335e+30
  1.6438406740e+00  1.7580734035e+31  1.2621519594e+30
  1.6495550680e+00  1.2493434826e+31  1.2345879454e+30
  1.6552694620e+00  7.3126569012e+30  1.1078186030e+30
  1.6609838560e+00  3.0351256614e+30  9.0031387975e+29
  1.6666982500e+00  5.7554386587e+29  6.4595254172e+29
  1.6724126440e+00  6.0123941621e+29  3.8942801450e+29
  1.6781270380e+00  3.3977441166e+30  1.7947455010e+29
  1.6838414320e+00  8.7907796382e+30  6.0894085794e+28
  1.6895558260e+00  1.6142309425e+31  6.6638323802e+28
  1.6952702200e+00  2.4426920192e+31  2.1128510352e+29
  1.7009846140e+00  3.2381496531e+31  4.8711529347e+29
  1.7066990080e+00  3.8708058253e+31  8.6365243969e+29
  1.7124134020e+00  4.2298970117e+31  1.2910138686e+30
  1.7181277960e+00  4.2447488310e+31  1.7068114443e+30
  1.7238421900e+00  3.9006163603e+31  2.0457265688e+30
  1.7295565840e+00  3.2461496648e+31  2.2503685156e+30
  1.7352709780e+00  2.3904939208e+31  2.2817003555e+30
  1.7409853720e+00  1.4896351293e+31  2.1272506984e+30
  1.7466997660e+00  7.2340197908e+30  1.8055530486e+30
  1.7524141600e+00  2.6624707516e+30  1.3657535129e+30
  1.7581285540e+00  2.5626364815e+30  8.8204160807e+29
  1.7638429480e+00  7.6759357967e+30  4.4338803337e+29
  1.7695573420e+00  1.7912795562e+31  1.3989108784e+29
  1.7752717360e+00  3.2286568500e+31  4.7705554595e+28
  1.7809861300e+00  4.8996526531e+31  2.1493302042e+29
  1.7867005240e+00  6.5660797427e+31  6.5090303206e+29
  1.7924149180e+00  7.9675014429e+31  1.3209326961e+30
  1.7981293120e+00  8.8648959709e+31  2.1479408762e+30
  1.8038437060e+00  9.0855575002e+31  3.0212957070e+30
  1.8095581000e+00  8.5617808224e+31  3.8121269545e+30
  1.8152724940e+00  7.3561148319e+31  4.3932090749e+30
  1.8209868880e+00  5.6674067626e+31  4.6605986485e+30
  1.8267012820e+00  3.8143808719e+31  4.5536560808e+30
  1.8324156760e+00  2.1968086723e+31  4.0700166301e+30
  1.8381300700e+00  1.2379898963e+31  3.2725538085e+30
  1.8438444640e+00  1.3157376368e+31  2.2863724959e+30
  1.8495588580e+00  2.6917916896e+31  1.2852705010e+30
  1.8552732520e+00  5.4510786399e+31  4.6873416512e+29
  1.8609876460e+00  9.4621458472e+31  3.2153971481e+28
  1.8667020400e+00  1.4368275520e+32  1.3430914897e+29
  1.8724164340e+00  1.9615334434e+32  8.6704281201e+29
  1.8781308280e+00  2.4517682181e+32  2.2322525313e+30
  1.8838452220e+00  2.8358009523e+32  4.1307621815e+30
  1.8895596160e+00  3.0511522467e+32  6.3663324507e+30
  1.8952740100e+00  3.0580199749e+32  8.6661350200e+30
  1.9009884040e+00  2.8519657873e+32  1.0716687281e+31
  1.9067027980e+00  2.4740032378e+32  1.2211825685e+31
  1.9124171920e+00  2.0163557948e+32  1.2907129851e+31
  1.9181315860e+00  1.6225230240e+32  1.2673631157e+31
  1.9238459800e+00  1.4808759350e+32  1.1542926067e+31
  1.9295603740e+00  1.8117373883e+32  9.7361419384e+30
  1.9352747680e+00  2.8487060472e+32  7.6706143021e+30
  1.9409891620e+00  4.8157541398e+32  5.9405238242e+30
  1.9467035560e+00  7.9022701957e+32  5.2708589814e+30
  1.9524179500e+00  1.2238639499e+33  6.4475494682e+30
  1.9581323440e+00  1.7875092509e+33  1.0230013278e+31
  1.9638467380e+00  2.4766373349e+33  1.7255216736e+31
  1.9695611320e+00  3.2764293521e+33  2.7944244497e+31
  1.9752755260e+00  4.1619485995e+33  4.2423001352e+31
  1.9809899200e+00  5.0992741641e+33  6.0467856241e+31
  1.9867043140e+00  6.0475298482e+33  8.1484808133e+31
  1.9924187080e+00  6.9616481395e+33  1.0452730805e+32
  1.9981331020e+00  7.7956270368e+33  1.2835358456e+32
  2.0038474960e+00  8.5059807142e+33  1.5151969179e+32
  2.0095618900e+00  9.0550601768e+33  1.7250009584e+32
  2.0152762840e+00  9.4139302973e+33  1.8982399834e+32
  2.0209906780e+00  9.5645338315e+33  2.0221324614e+32
  2.0267050720e+00  9.5009460192e+33  2.0870693155e+32
  2.0324194660e+00  9.2296166532e+33  2.0875879208e+32
  2.0381338600e+00  8.7685992033e+33  2.0229619914e+32
  2.0438482540e+00  8.1458669326e+33  1.8973359698e+32
  2.0495626480e+00  7.3969027093e+33  1.7193824776e+32
  2.0552770420e+00  6.5618130573e+33  1.5015146501e+32
  2.0609914360e+00  5.6822515807e+33  1.2587353322e+32
  2.0667058300e+00  4.7984395980e+33  1.0072460258e+32
  2.0724202240e+00  3.9465438819e+33  7.6296513990e+31
  2.0781346180e+00  3.1566176455e+33  5.4011420449e+31
  2.0838490120e+00  2.4512389917e+33  3.5002118454e+31
  2.0895634060e+00  1.8449003214e+33  2.0026308334e+31
  2.0952778000e+00  1.3441225309e+33  9.4229063467e+30
  2.1009921940e+00  9.4819825165e+32  3.1135468536e+30
  2.1067065880e+00  6.5041607448e+32  6.4716084521e+29
  2.1124209820e+00  4.3958712025e+32  1.2806446865e+30
  2.1181353760e+00  3.0168792054e+32  4.0847310512e+30
  2.1238497700e+00  2.2144776499e+32  8.0617012323e+30
  2.1295641640e+00  1.8374032803e+32  1.2260803632e+31
  2.1352785580e+00  1.7468257223e+32  1.5878215150e+31
  2.1409929520e+00  1.8239185946e+32  1.8330924670e+31
  2.1467073460e+00  1.9739825473e+32  1.9297658939e+31
  2.1524217400e+00  2.1274758868e+32  1.8724395113e+31
  2.1581361340e+00  2.2385807167e+32  1.6796523143e+31
  2.1638505280e+00  2.2820731722e+32  1.3883753196e+31
  2.1695649220e+00  2.2492783215e+32  1.0466910016e+31
  2.1752793160e+00  2.1437948440e+32  7.0574657962e+30
  2.1809937100e+00  1.9775057479e+32  4.1208730958e+30
  2.1867081040e+00  1.7671893678e+32  2.0135119136e+30
  2.1924224980e+00  1.5318489309e+32  9.4059483585e+29
  2.1981368920e+00  1.2907211287e+32  9.3907014667e+29
  2.2038512860e+00  1.0618247446e+32  1.8859097852e+30
  2.2095656800e+00  8.6087604482e+31  3.5286784866e+30
  2.2152800740e+00  7.0042155855e+31  5.5324193119e+30
  2.2209944680e+00  5.8910363953e+31  7.5350190249e+30
  2.2267088620e+00  5.3105610608e+31  9.2025417977e+30
  2.2324232560e+00  5.2550149974e+31  1.0276573538e+31
  2.2381376500e+00  5.6666716627e+31  1.0607260871e+31
  2.2438520440e+00  6.4414140581e+31  1.0168171479e+31
  2.2495664380e+00  7.4375045947e+31  9.0519593282e+30
  2.2552808320e+00  8.4895956950e+31  7.4486615130e+30
  2.2609952260e+00  9.4270285257e+31  5.6108768398e+30
  2.2667096200e+00  1.0094485662e+32  3.8117522780e+30
  2.2724240140e+00  1.0372307189e+32  2.3024268621e+30
  2.2781384080e+00  1.0193434776e+32  1.2752953211e+30
  2.2838528020e+00  9.5541268634e+31  8.3824667697e+29
  2.2895671960e+00  8.5163048262e+31  1.0031273148e+30
  2.2952815900e+00  7.2005555706e+31  1.6893870358e+30
  2.3009959840e+00  5.7702512328e+31  2.7415466024e+30
  2.3067103780e+00  4.4087121354e+31  3.9571213167e+30
  2.3124247720e+00  3.2925778182e+31  5.1202306538e+30
  2.3181391660e+00  2.5653337441e+31  6.0355012551e+30
  2.3238535600e+00  2.3151094084e+31  6.5570879603e+30
  2.3295679540e+00  2.5603590201e+31  6.6086253929e+30
  2.3352823480e+00  3.2459148594e+31  6.1914987885e+30
  2.3409967420e+00  4.2503299341e+31  5.3807242232e+30
  2.3467111360e+00  5.4036474927e+31  4.3096537681e+30
  2.3524255300e+00  6.5130397205e+31  3.1463774177e+30
  2.3581399240e+00  7.3924303475e+31  2.0658402851e+30
  2.3638543180e+00  7.8914857149e+31  1.2221766404e+30
  2.3695687120e+00  7.9193618188e+31  7.2553487969e+29
  2.3752831060e+00  7.4593477079e+31  6.2679255225e+29
  2.3809975000e+00  6.5719408660e+31  9.1219777276e+29
  2.3867118940e+00  5.3857116923e+31  1.5083510537e+30
  2.3924262880e+00  4.0772711485e+31  2.2963195303e+30
  2.3981406820e+00  2.8434298451e+31  3.1323039309e+30
  2.4038550760e+00  1.8699349996e+31  3.8713600757e+30
  2.4095694700e+00  1.3017744676e+31  4.3903366766e+30
  2.4152838640e+00  1.2198364165e+31  4.6064613884e+30
  2.4209982580e+00  1.6277318100e+31  4.4888235310e+30
  2.4267126520e+00  2.4509759692e+31  4.0612181899e+30
  2.4324270460e+00  3.5487414585e+31  3.3962289473e+30
  2.4381414400e+00  4.7363578997e+31  2.6018080212e+30
  2.4438558340e+00  5.8149774581e+31  1.8027481999e+30
  2.4495702280e+00  6.6036373909e+31  1.1201611913e+30
  2.4552846220e+00  6.9685321310e+31  6.5228280809e+29
  2.4609990160e+00  6.8447314700e+31  4.5960140446e+29
  2.4667134100e+00  6.2467853892e+31  5.5652033095e+29
  2.4724278040e+00  5.2664484168e+31  9.1065633181e+29
  2.4781421980e+00  4.0578475996e+31  1.4496287629e+30
  2.4838565920e+00  2.8124677584e+31  2.0740103201e+30
  2.4895709860e+00  1.7279997294e+31  2.6741737508e+30
  2.4952853800e+00  9.7611572990e+30  3.1482212622e+30
  2.5009997740e+00  6.7443041711e+30  3.4180990441e+30
  2.5067141680e+00  8.6724054410e+30  3.4413780772e+30
  2.5124285620e+00  1.5182153289e+31  3.2169504895e+30
  2.5181429560e+00  2.5162632999e+31  2.7839148835e+30
  2.5238573500e+00  3.6936465407e+31  2.2140341315e+30
  2.5295717440e+00  4.8534028073e+31  1.5991660384e+30
  2.5352861380e+00  5.8016007452e+31  1.0358316429e+30
  2.5410005320e+00  6.3791475481e+31  6.0948285631e+29
  2.5467149260e+00  6.4879272005e+31  3.8100730389e+29
  2.5524293200e+00  6.1069645661e+31  3.7757875125e+29
  2.5581437140e+00  5.2959383509e+31  5.8920580552e+29
  2.5638581080e+00  4.1854391508e+31  9.7137912390e+29
  2.5695725020e+00  2.9555477092e+31  1.4532257458e+30
  2.5752868960e+00  1.8062347723e+31  1.9497082851e+30
  2.5810012900e+00  9.2443937845e+30  2.3757931843e+30
  2.5867156840e+00  4.5324178621e+30  2.6602480853e+30
  2.5924300780e+00  4.6821567331e+30  2.7568474284e+30
  2.5981444720e+00  9.6487344412e+30  2.6512391834e+30
  2.6038588660e+00  1.8592988129e+31  2.3624694343e+30
  2.6095732600e+00  3.0018903931e+31  1.9390492403e+30
  2.6152876540e+00  4.2019758874e+31  1.4503334672e+30
  2.6210020480e+00  5.2592559357e+31  9.7472149773e+29
  2.6267164420e+00  5.9968982699e+31  5.8666885503e+29
  2.6324308360e+00  6.2908167221e+31  3.4464538574e+29
  2.6381452300e+00  6.0902858951e+31  2.8197350765e+29
  2.6438596240e+00  5.4264619727e+31  4.0196945969e+29
  2.6495740180e+00  4.4073711367e+31  6.7808075147e+29
  2.6552884120e+00  3.2001619484e+31  1.0588868257e+30
  2.6610028060e+00  2.0035279427e+31  1.4770430666e+30
  2.6667172000e+00  1.0148420298e+31  1.8606272880e+30
  2.6724315940e+00  3.9743284355e+30  2.1449898864e+30
  2.6781459880e+00  2.5342530316e+30  2.2831665674e+30
  2.6838603820e+00  6.0666163435e+30  2.2531864376e+30
  2.6895747760e+00  1.3985619265e+31  2.0611475391e+30
  2.6952891700e+00  2.4976469597e+31  1.7396438181e+30
  2.7010035640e+00  3.7211828848e+31  1.3418930920e+30
  2.7067179580e+00  4.8653920798e+31  9.3260938656e+29
  2.7124323520e+00  5.7392421465e+31  5.7717364352e+29
  2.7181467460e+00  6.1962151896e+31  3.3090466284e+29
  2.7238611400e+00  6.1587763886e+31  2.3018177693e+29
  2.7295755340e+00  5.6314552679e+31  2.8683583828e+29
  2.7352899280e+00  4.7003300649e+31  4.8666531067e+29
  2.7410043220e+00  3.5189562129e+31  7.9224480391e+29
  2.7467187160e+00  2.2830319970e+31  1.1494889227e+30
  2.7524331100e+00  1.1979739573e+31  1.4968299198e+30
  2.7581475040e+00  4.4476800414e+30  1.7754601903e+30
  2.7638618980e+00  1.4976851835e+30  1.9389432374e+30
  2.7695762920e+00  3.6348249198e+30  1.9606290567e+30
  2.7752906860e+00  1.0519007620e+31  1.8376956804e+30
  2.7810050800e+00  2.1018653023e+31  1.5912107065e+30
  2.7867194740e+00  3.3396325066e+31  1.2622685359e+30
  2.7924338680e+00  4.5595935736e+31  9.0490112118e+29
  2.7981482620e+00  5.5584106950e+31  5.7697764541e+29
  2.8038626560e+00  6.1689070370e+31  3.3061898369e+29
  2.8095770500e+00  6.2880660597e+31  2.0370847808e+29
  2.8152914440e+00  5.8944527563e+31  2.1387625628e+29
  2.8210058380e+00  5.0521108539e+31  3.5590741133e+29
  2.8267202320e+00  3.9002296201e+31  6.0294806128e+29
  2.8324346260e+00  2.6302411421e+31  9.1125421933e+29
  2.8381490200e+00  1.4541102889e+31  1.2276503684e+30
  2.8438634140e+00  5.6906391064e+30  1.4984316506e+30
  2.8495778080e+00  1.2462306393e+30  1.6782245770e+30
  2.8552922020e+00  1.9744523882e+30  1.7373490420e+30
  2.8610065960e+00  7.7820742705e+30  1.6664912032e+30
  2.8667209900e+00  1.7727735241e+31  1.4779554141e+30
  2.8724353840e+00  3.0175186191e+31  1.2033360078e+30
  2.8781497780e+00  4.3063213850e+31  8.8804081647e+29
  2.8838641720e+00  5.4247776302e+31  5.8361055516e+29
  2.8895785660e+00  6.1859615764e+31  3.3912851142e+29
  2.8952929600e+00  6.4617748016e+31  1.9314789328e+29
  2.9010073540e+00  6.2046287312e+31  1.6746062328e+29
  2.9067217480e+00  5.4557925542e+31  2.6371132308e+29
  2.9124361420e+00  4.3389446825e+31  4.6337901052e+29
  2.9181505360e+00  3.0399276943e+31  7.3108773763e+29
  2.9238649300e+00  1.7760148552e+31  1.0206593199e+30
  2.9295793240e+00  7.5976487868e+30  1.2828764506e+30
  2.9352937180e+00  1.6347253490e+30  1.4736548361e+30
  2.9410081120e+00  9.0156022279e+29  1.5612708684e+30
  2.9467225060e+00  5.5596321742e+30  1.5314628324e+30
  2.9524369000e+00  1.4869990922e+31  1.3895879579e+30
  2.9581512940e+00  2.7311848131e+31  1.1595125971e+30
  2.9638656880e+00  4.0832516270e+31  8.7945546156e+29
  2.9695800820e+00  5.3187675297e+31  5.9550425997e+29
  2.9752944760e+00  6.2315618645e+31  3.5390224843e+29
  2.9810088700e+00  6.6683123557e+31  1.9339245931e+29
  2.9867232640e+00  6.5544965147e+31  1.3888415085e+29
  2.9924376580e+00  5.9073180761e+31  1.9747437661e+29
  2.9981520520e+00  4.8333697112e+31  3.5745786202e+29
  3.0038664460e+00  3.5113310394e+31  5.9045822747e+29
  3.0095808400e+00  2.1625043247e+31  8.5629652916e+29
  3.0152952340e+00  1.0140407480e+31  1.1097645780e+30
