#  Energy (ev)    Absorption NP      Absorption MG
  9.5239900000e-01  4.4490886331e+20  2.0400716848e+19
  9.5811339400e-01  4.4634803561e+20  2.0691169294e+19
  9.6382778800e-01  4.4776537768e+20  2.0986021083e+19
  9.6954218200e-01  4.4916104261e+20  2.1285367464e+19
  9.7525657600e-01  4.5053518217e+20  2.1589305994e+19
  9.8097097000e-01  4.5188794712e+20  2.1897936594e+19
  9.8668536400e-01  4.5321948712e+20  2.2211361627e+19
  9.9239975800e-01  4.5452995042e+20  2.2529685960e+19
  9.9811415200e-01  4.5581948338e+20  2.2853017042e+19
  1.0038285460e+00  4.5708823012e+20  2.3181464976e+19
  1.0095429400e+00  4.5833633254e+20  2.3515142599e+19
  1.0152573340e+00  4.5956393070e+20  2.3854165561e+19
  1.0209717280e+00  4.6077116314e+20  2.4198652408e+19
  1.0266861220e+00  4.6195816711e+20  2.4548724667e+19
  1.0324005160e+00  4.6312507836e+20  2.4904506939e+19
  1.0381149100e+00  4.6427203069e+20  2.5266126982e+19
  1.0438293040e+00  4.6539915554e+20  2.5633715817e+19
  1.0495436980e+00  4.6650658178e+20  2.6007407816e+19
  1.0552580920e+00  4.6759443600e+20  2.6387340810e+19
  1.0609724860e+00  4.6866284285e+20  2.6773656192e+19
  1.0666868800e+00  4.6971192550e+20  2.7166499024e+19
  1.0724012740e+00  4.7074180555e+20  2.7566018152e+19
  1.0781156680e+00  4.7175260278e+20  2.7972366320e+19
  1.0838300620e+00  4.7274443458e+20  2.8385700292e+19
  1.0895444560e+00  4.7371741569e+20  2.8806180975e+19
  1.0952588500e+00  4.7467165821e+20  2.9233973549e+19
  1.1009732440e+00  4.7560727198e+20  2.9669247599e+19
  1.1066876380e+00  4.7652436508e+20  3.0112177253e+19
  1.1124020320e+00  4.7742304401e+20  3.0562941328e+19
  1.1181164260e+00  4.7830341355e+20  3.1021723471e+19
  1.1238308200e+00  4.7916557630e+20  3.1488712319e+19
  1.1295452140e+00  4.8000963223e+20  3.1964101655e+19
  1.1352596080e+00  4.8083567849e+20  3.2448090570e+19
  1.1409740020e+00  4.8164380970e+20  3.2940883634e+19
  1.1466883960e+00  4.8243411841e+20  3.3442691075e+19
  1.1524027900e+00  4.8320669556e+20  3.3953728957e+19
  1.1581171840e+00  4.8396163047e+20  3.4474219370e+19
  1.1638315780e+00  4.8469901052e+20  3.5004390627e+19
  1.1695459720e+00  4.8541892066e+20  3.5544477466e+19
  1.1752603660e+00  4.8612144302e+20  3.6094721258e+19
  1.1809747600e+00  4.8680665700e+20  3.6655370226e+19
  1.1866891540e+00  4.8747463966e+20  3.7226679672e+19
  1.1924035480e+00  4.8812546629e+20  3.7808912206e+19
  1.1981179420e+00  4.8875921066e+20  3.8402337994e+19
  1.2038323360e+00  4.8937594488e+20  3.9007235002e+19
  1.2095467300e+00  4.8997573890e+20  3.9623889261e+19
  1.2152611240e+00  4.9055866002e+20  4.0252595135e+19
  1.2209755180e+00  4.9112477276e+20  4.0893655601e+19
  1.2266899120e+00  4.9167413908e+20  4.1547382536e+19
  1.2324043060e+00  4.9220681895e+20  4.2214097020e+19
  1.2381187000e+00  4.9272287086e+20  4.2894129646e+19
  1.2438330940e+00  4.9322235186e+20  4.3587820841e+19
  1.2495474880e+00  4.9370531721e+20  4.4295521206e+19
  1.2552618820e+00  4.9417181985e+20  4.5017591856e+19
  1.2609762760e+00  4.9462191002e+20  4.5754404784e+19
  1.2666906700e+00  4.9505563529e+20  4.6506343233e+19
  1.2724050640e+00  4.9547304105e+20  4.7273802081e+19
  1.2781194580e+00  4.9587417115e+20  4.8057188246e+19
  1.2838338520e+00  4.9625906815e+20  4.8856921097e+19
  1.2895482460e+00  4.9662777326e+20  4.9673432889e+19
  1.2952626400e+00  4.9698032577e+20  5.0507169207e+19
  1.3009770340e+00  4.9731676258e+20  5.1358589433e+19
  1.3066914280e+00  4.9763711793e+20  5.2228167221e+19
  1.3124058220e+00  4.9794142381e+20  5.3116391004e+19
  1.3181202160e+00  4.9822971050e+20  5.4023764500e+19
  1.3238346100e+00  4.9850200716e+20  5.4950807257e+19
  1.3295490040e+00  4.9875834195e+20  5.5898055203e+19
  1.3352633980e+00  4.9899874166e+20  5.6866061220e+19
  1.3409777920e+00  4.9922323115e+20  5.7855395747e+19
  1.3466921860e+00  4.9943183293e+20  5.8866647390e+19
  1.3524065800e+00  4.9962456722e+20  5.9900423567e+19
  1.3581209740e+00  4.9980145248e+20  6.0957351171e+19
  1.3638353680e+00  4.9996250616e+20  6.2038077253e+19
  1.3695497620e+00  5.0010774503e+20  6.3143269740e+19
  1.3752641560e+00  5.0023718513e+20  6.4273618165e+19
  1.3809785500e+00  5.0035084124e+20  6.5429834432e+19
  1.3866929440e+00  5.0044872629e+20  6.6612653606e+19
  1.3924073380e+00  5.0053085120e+20  6.7822834728e+19
  1.3981217320e+00  5.0059722522e+20  6.9061161659e+19
  1.4038361260e+00  5.0064785668e+20  7.0328443950e+19
  1.4095505200e+00  5.0068275362e+20  7.1625517749e+19
  1.4152649140e+00  5.0070192403e+20  7.2953246728e+19
  1.4209793080e+00  5.0070537551e+20  7.4312523047e+19
  1.4266937020e+00  5.0069311464e+20  7.5704268345e+19
  1.4324080960e+00  5.0066514662e+20  7.7129434764e+19
  1.4381224900e+00  5.0062147533e+20  7.8589006005e+19
  1.4438368840e+00  5.0056210400e+20  8.0083998413e+19
  1.4495512780e+00  5.0048703605e+20  8.1615462098e+19
  1.4552656720e+00  5.0039627566e+20  8.3184482084e+19
  1.4609800660e+00  5.0028982770e+20  8.4792179490e+19
  1.4666944600e+00  5.0016769727e+20  8.6439712748e+19
  1.4724088540e+00  5.0002988912e+20  8.8128278842e+19
  1.4781232480e+00  4.9987640754e+20  8.9859114589e+19
  1.4838376420e+00  4.9970725682e+20  9.1633497939e+19
  1.4895520360e+00  4.9952244213e+20  9.3452749306e+19
  1.4952664300e+00  4.9932197045e+20  9.5318232933e+19
  1.5009808240e+00  4.9910585087e+20  9.7231358269e+19
  1.5066952180e+00  4.9887409443e+20  9.9193581378e+19
  1.5124096120e+00  4.9862671352e+20  1.0120640636e+20
  1.5181240060e+00  4.9836372156e+20  1.0327138680e+20
  1.5238384000e+00  4.9808513325e+20  1.0539012722e+20
  1.5295527940e+00  4.9779096545e+20  1.0756428453e+20
  1.5352671880e+00  4.9748123830e+20  1.0979556949e+20
  1.5409815820e+00  4.9715597602e+20  1.1208574821e+20
  1.5466959760e+00  4.9681520713e+20  1.1443664354e+20
  1.5524103700e+00  4.9645896408e+20  1.1685013655e+20
  1.5581247640e+00  4.9608728287e+20  1.1932816791e+20
  1.5638391580e+00  4.9570020309e+20  1.2187273926e+20
  1.5695535520e+00  4.9529776865e+20  1.2448591455e+20
  1.5752679460e+00  4.9488002916e+20  1.2716982127e+20
  1.5809823400e+00  4.9444704111e+20  1.2992665164e+20
  1.5866967340e+00  4.9399886871e+20  1.3275866369e+20
  1.5924111280e+00  4.9353558393e+20  1.3566818226e+20
  1.5981255220e+00  4.9305726626e+20  1.3865759980e+20
  1.6038399160e+00  4.9256400269e+20  1.4172937708e+20
  1.6095543100e+00  4.9205588835e+20  1.4488604373e+20
  1.6152687040e+00  4.9153302794e+20  1.4813019844e+20
  1.6209830980e+00  4.9099553745e+20  1.5146450913e+20
  1.6266974920e+00  4.9044354565e+20  1.5489171263e+20
  1.6324118860e+00  4.8987719484e+20  1.5841461419e+20
  1.6381262800e+00  4.8929664106e+20  1.6203608657e+20
  1.6438406740e+00  4.8870205423e+20  1.6575906875e+20
  1.6495550680e+00  4.8809361882e+20  1.6958656413e+20
  1.6552694620e+00  4.8747153542e+20  1.7352163831e+20
  1.6609838560e+00  4.8683602298e+20  1.7756741618e+20
  1.6666982500e+00  4.8618732108e+20  1.8172707848e+20
  1.6724126440e+00  4.8552569171e+20  1.8600385756e+20
  1.6781270380e+00  4.8485142037e+20  1.9040103239e+20
  1.6838414320e+00  4.8416481673e+20  1.9492192264e+20
  1.6895558260e+00  4.8346621568e+20  1.9956988188e+20
  1.6952702200e+00  4.8275597923e+20  2.0434828960e+20
  1.7009846140e+00  4.8203449936e+20  2.0926054212e+20
  1.7066990080e+00  4.8130220138e+20  2.1431004219e+20
  1.7124134020e+00  4.8055954709e+20  2.1950018718e+20
  1.7181277960e+00  4.7980703727e+20  2.2483435575e+20
  1.7238421900e+00  4.7904521364e+20  2.3031589286e+20
  1.7295565840e+00  4.7827466073e+20  2.3594809294e+20
  1.7352709780e+00  4.7749600871e+20  2.4173418118e+20
  1.7409853720e+00  4.7670993719e+20  2.4767729272e+20
  1.7466997660e+00  4.7591718010e+20  2.5378044960e+20
  1.7524141600e+00  4.7511853085e+20  2.6004653539e+20
  1.7581285540e+00  4.7431484706e+20  2.6647826732e+20
  1.7638429480e+00  4.7350705472e+20  2.7307816572e+20
  1.7695573420e+00  4.7269615205e+20  2.7984852084e+20
  1.7752717360e+00  4.7188321408e+20  2.8679135671e+20
  1.7809861300e+00  4.7106939843e+20  2.9390839218e+20
  1.7867005240e+00  4.7025595255e+20  3.0120099884e+20
  1.7924149180e+00  4.6944422190e+20  3.0867015614e+20
  1.7981293120e+00  4.6863565830e+20  3.1631640333e+20
  1.8038437060e+00  4.6783182786e+20  3.2413978860e+20
  1.8095581000e+00  4.6703441866e+20  3.3213981541e+20
  1.8152724940e+00  4.6624524890e+20  3.4031538618e+20
  1.8209868880e+00  4.6546627639e+20  3.4866474370e+20
  1.8267012820e+00  4.6469961006e+20  3.5718541051e+20
  1.8324156760e+00  4.6394752313e+20  3.6587412677e+20
  1.8381300700e+00  4.6321246746e+20  3.7472678713e+20
  1.8438444640e+00  4.6249708797e+20  3.8373837731e+20
  1.8495588580e+00  4.6180423730e+20  3.9290291113e+20
  1.8552732520e+00  4.6113699087e+20  4.0221336891e+20
  1.8609876460e+00  4.6049866366e+20  4.1166163829e+20
  1.8667020400e+00  4.5989282959e+20  4.2123845865e+20
  1.8724164340e+00  4.5932334366e+20  4.3093337035e+20
  1.8781308280e+00  4.5879436655e+20  4.4073467024e+20
  1.8838452220e+00  4.5831039081e+20  4.5062937486e+20
  1.8895596160e+00  4.5787626797e+20  4.6060319292e+20
  1.8952740100e+00  4.5749723699e+20  4.7064050861e+20
  1.9009884040e+00  4.5717895506e+20  4.8072437732e+20
  1.9067027980e+00  4.5692753197e+20  4.9083653524e+20
  1.9124171920e+00  4.5674956905e+20  5.0095742439e+20
  1.9181315860e+00  4.5665220264e+20  5.1106623419e+20
  1.9238459800e+00  4.5664315144e+20  5.2114096070e+20
  1.9295603740e+00  4.5673076706e+20  5.3115848427e+20
  1.9352747680e+00  4.5692408773e+20  5.4109466597e+20
  1.9409891620e+00  4.5723289616e+20  5.5092446294e+20
  1.9467035560e+00  4.5766778320e+20  5.6062206201e+20
  1.9524179500e+00  4.5824021884e+20  5.7016103083e+20
  1.9581323440e+00  4.5896263134e+20  5.7951448505e+20
  1.9638467380e+00  4.5984849443e+20  5.8865526957e+20
  1.9695611320e+00  4.6091242190e+20  5.9755615138e+20
  1.9752755260e+00  4.6217026962e+20  6.0619002127e+20
  1.9809899200e+00  4.6363924570e+20  6.1453010104e+20
  1.9867043140e+00  4.6533803088e+20  6.2255015271e+20
  1.9924187080e+00  4.6728691147e+20  6.3022468611e+20
  1.9981331020e+00  4.6950792670e+20  6.3752916099e+20
  2.0038474960e+00  4.7202503136e+20  6.4444018024e+20
  2.0095618900e+00  4.7486427363e+20  6.5093567057e+20
  2.0152762840e+00  4.7805398830e+20  6.5699504782e+20
  2.0209906780e+00  4.8162500603e+20  6.6259936437e+20
  2.0267050720e+00  4.8561088115e+20  6.6773143651e+20
  2.0324194660e+00  4.9004814090e+20  6.7237595072e+20
  2.0381338600e+00  4.9497655934e+20  6.7651954802e+20
  2.0438482540e+00  5.0043945766e+20  6.8015088656e+20
  2.0495626480e+00  5.0648403177e+20  6.8326068298e+20
  2.0552770420e+00  5.1316170712e+20  6.8584173377e+20
  2.0609914360e+00  5.2052852100e+20  6.8788891835e+20
  2.0667058300e+00  5.2864553395e+20  6.8939918557e+20
  2.0724202240e+00  5.3757927251e+20  6.9037152590e+20
  2.0781346180e+00  5.4740220586e+20  6.9080693141e+20
  2.0838490120e+00  5.5819325711e+20  6.9070834542e+20
  2.0895634060e+00  5.7003834777e+20  6.9008060381e+20
  2.0952778000e+00  5.8303097120e+20  6.8893036932e+20
  2.1009921940e+00  5.9727278952e+20  6.8726606015e+20
  2.1067065880e+00  6.1287424688e+20  6.8509777359e+20
  2.1124209820e+00  6.2995519152e+20  6.8243720515e+20
  2.1181353760e+00  6.4864549608e+20  6.7929756328e+20
  2.1238497700e+00  6.6908566106e+20  6.7569347963e+20
  2.1295641640e+00  6.9142737911e+20  6.7164091461e+20
  2.1352785580e+00  7.1583402889e+20  6.6715705785e+20
  2.1409929520e+00  7.4248105818e+20  6.6226022332e+20
  2.1467073460e+00  7.7155620603e+20  6.5696973893e+20
  2.1524217400e+00  8.0325950384e+20  6.5130583065e+20
  2.1581361340e+00  8.3780298229e+20  6.4528950130e+20
  2.1638505280e+00  8.7540999537e+20  6.3894240474e+20
  2.1695649220e+00  9.1631405296e+20  6.3228671604e+20
  2.1752793160e+00  9.6075703116e+20  6.2534499886e+20
  2.1809937100e+00  1.0089866082e+21  6.1814007138e+20
  2.1867081040e+00  1.0612527540e+21  6.1069487212e+20
  2.1924224980e+00  1.1178030893e+21  6.0303232736e+20
  2.1981368920e+00  1.1788769214e+21  5.9517522188e+20
  2.2038512860e+00  1.2446977726e+21  5.8714607451e+20
  2.2095656800e+00  1.3154642306e+21  5.7896702019e+20
  2.2152800740e+00  1.3913390003e+21  5.7065969987e+20
  2.2209944680e+00  1.4724361062e+21  5.6224515955e+20
  2.2267088620e+00  1.5588063182e+21  5.5374375939e+20
  2.2324232560e+00  1.6504210450e+21  5.4517509370e+20
  2.2381376500e+00  1.7471551623e+21  5.3655792232e+20
  2.2438520440e+00  1.8487695176e+21  5.2791011357e+20
  2.2495664380e+00  1.9548941632e+21  5.1924859884e+20
  2.2552808320e+00  2.0650136763e+21  5.1058933849e+20
  2.2609952260e+00  2.1784562088e+21  5.0194729880e+20
  2.2667096200e+00  2.2943880912e+21  4.9333643923e+20
  2.2724240140e+00  2.4118158438e+21  4.8476970927e+20
  2.2781384080e+00  2.5295972433e+21  4.7625905417e+20
  2.2838528020e+00  2.6464626025e+21  4.6781542850e+20
  2.2895671960e+00  2.7610466296e+21  4.5944881674e+20
  2.2952815900e+00  2.8719301823e+21  4.5116825980e+20
  2.3009959840e+00  2.9776900317e+21  4.4298188670e+20
  2.3067103780e+00  3.0769535919e+21  4.3489695029e+20
  2.3124247720e+00  3.1684546400e+21  4.2691986639e+20
  2.3181391660e+00  3.2510855745e+21  4.1905625530e+20
  2.3238535600e+00  3.3239418449e+21  4.1131098513e+20
  2.3295679540e+00  3.3863548759e+21  4.0368821613e+20
  2.3352823480e+00  3.4379110084e+21  3.9619144559e+20
  2.3409967420e+00  3.4784554890e+21  3.8882355258e+20
  2.3467111360e+00  3.5080821120e+21  3.8158684229e+20
  2.3524255300e+00  3.5271104930e+21  3.7448308945e+20
  2.3581399240e+00  3.5360539390e+21  3.6751358055e+20
  2.3638543180e+00  3.5355813817e+21  3.6067915466e+20
  2.3695687120e+00  3.5264768451e+21  3.5398024257e+20
  2.3752831060e+00  3.5095995336e+21  3.4741690415e+20
  2.3809975000e+00  3.4858469765e+21  3.4098886385e+20
  2.3867118940e+00  3.4561229018e+21  3.3469554417e+20
  2.3924262880e+00  3.4213107671e+21  3.2853609722e+20
  2.3981406820e+00  3.3822532298e+21  3.2250943421e+20
  2.4038550760e+00  3.3397373384e+21  3.1661425298e+20
  2.4095694700e+00  3.2944848864e+21  3.1084906362e+20
  2.4152838640e+00  3.2471471722e+21  3.0521221216e+20
  2.4209982580e+00  3.1983033280e+21  2.9970190244e+20
  2.4267126520e+00  3.1484613949e+21  2.9431621623e+20
  2.4324270460e+00  3.0980613898e+21  2.8905313172e+20
  2.4381414400e+00  3.0474797189e+21  2.8391054035e+20
  2.4438558340e+00  2.9970344099e+21  2.7888626220e+20
  2.4495702280e+00  2.9469907470e+21  2.7397805997e+20
  2.4552846220e+00  2.8975669996e+21  2.6918365163e+20
  2.4609990160e+00  2.8489400153e+21  2.6450072182e+20
  2.4667134100e+00  2.8012505244e+21  2.5992693216e+20
  2.4724278040e+00  2.7546080545e+21  2.5545993043e+20
  2.4781421980e+00  2.7090954049e+21  2.5109735886e+20
  2.4838565920e+00  2.6647726621e+21  2.4683686142e+20
  2.4895709860e+00  2.6216807641e+21  2.4267609032e+20
  2.4952853800e+00  2.5798446347e+21  2.3861271182e+20
  2.5009997740e+00  2.5392759188e+21  2.3464441119e+20
  2.5067141680e+00  2.4999753500e+21  2.3076889714e+20
  2.5124285620e+00  2.4619347837e+21  2.2698390570e+20
  2.5181429560e+00  2.4251389313e+21  2.2328720342e+20
  2.5238573500e+00  2.3895668296e+21  2.1967659030e+20
  2.5295717440e+00  2.3551930809e+21  2.1614990209e+20
  2.5352861380e+00  2.3219888960e+21  2.1270501232e+20
  2.5410005320e+00  2.2899229694e+21  2.0933983396e+20
  2.5467149260e+00  2.2589622090e+21  2.0605232071e+20
  2.5524293200e+00  2.2290723410e+21  2.0284046810e+20
  2.5581437140e+00  2.2002184051e+21  1.9970231421e+20
  2.5638581080e+00  2.1723651559e+21  1.9663594028e+20
  2.5695725020e+00  2.1454773870e+21  1.9363947107e+20
  2.5752868960e+00  2.1195201894e+21  1.9071107504e+20
  2.5810012900e+00  2.0944591596e+21  1.8784896435e+20
  2.5867156840e+00  2.0702605636e+21  1.8505139478e+20
  2.5924300780e+00  2.0468914659e+21  1.8231666550e+20
  2.5981444720e+00  2.0243198245e+21  1.7964311868e+20
  2.6038588660e+00  2.0025145587e+21  1.7702913912e+20
  2.6095732600e+00  1.9814455926e+21  1.7447315370e+20
  2.6152876540e+00  1.9610838818e+21  1.7197363078e+20
  2.6210020480e+00  1.9414014257e+21  1.6952907962e+20
  2.6267164420e+00  1.9223712719e+21  1.6713804964e+20
  2.6324308360e+00  1.9039675129e+21  1.6479912969e+20
  2.6381452300e+00  1.8861652751e+21  1.6251094734e+20
  2.6438596240e+00  1.8689407005e+21  1.6027216803e+20
  2.6495740180e+00  1.8522709225e+21  1.5808149430e+20
  2.6552884120e+00  1.8361340356e+21  1.5593766493e+20
  2.6610028060e+00  1.8205090650e+21  1.5383945416e+20
  2.6667172000e+00  1.8053759342e+21  1.5178567077e+20
  2.6724315940e+00  1.7907154357e+21  1.4977515731e+20
  2.6781459880e+00  1.7765092005e+21  1.4780678918e+20
  2.6838603820e+00  1.7627396672e+21  1.4587947387e+20
  2.6895747760e+00  1.7493900488e+21  1.4399215003e+20
  2.6952891700e+00  1.7364442992e+21  1.4214378672e+20
  2.7010035640e+00  1.7238870782e+21  1.4033338252e+20
  2.7067179580e+00  1.7117037199e+21  1.3855996478e+20
  2.7124323520e+00  1.6998802029e+21  1.3682258878e+20
  2.7181467460e+00  1.6884031235e+21  1.3512033694e+20
  2.7238611400e+00  1.6772596694e+21  1.3345231809e+20
  2.7295755340e+00  1.6664375935e+21  1.3181766666e+20
  2.7352899280e+00  1.6559251865e+21  1.3021554198e+20
  2.7410043220e+00  1.6457112497e+21  1.2864512752e+20
  2.7467187160e+00  1.6357850691e+21  1.2710563021e+20
  2.7524331100e+00  1.6261363920e+21  1.2559627973e+20
  2.7581475040e+00  1.6167554067e+21  1.2411632783e+20
  2.7638618980e+00  1.6076327234e+21  1.2266504770e+20
  2.7695762920e+00  1.5987593560e+21  1.2124173328e+20
  2.7752906860e+00  1.5901267027e+21  1.1984569867e+20
  2.7810050800e+00  1.5817265263e+21  1.1847627751e+20
  2.7867194740e+00  1.5735509348e+21  1.1713282239e+20
  2.7924338680e+00  1.5655923640e+21  1.1581470427e+20
  2.7981482620e+00  1.5578435623e+21  1.1452131193e+20
  2.8038626560e+00  1.5502975776e+21  1.1325205142e+20
  2.8095770500e+00  1.5429477454e+21  1.1200634551e+20
  2.8152914440e+00  1.5357876757e+21  1.1078363323e+20
  2.8210058380e+00  1.5288112397e+21  1.0958336934e+20
  2.8267202320e+00  1.5220125558e+21  1.0840502383e+20
  2.8324346260e+00  1.5153859761e+21  1.0724808150e+20
  2.8381490200e+00  1.5089260756e+21  1.0611204147e+20
  2.8438634140e+00  1.5026276430e+21  1.0499641676e+20
  2.8495778080e+00  1.4964856722e+21  1.0390073385e+20
  2.8552922020e+00  1.4904953552e+21  1.0282453228e+20
  2.8610065960e+00  1.4846520724e+21  1.0176736423e+20
  2.8667209900e+00  1.4789513833e+21  1.0072879418e+20
  2.8724353840e+00  1.4733890163e+21  9.9708398482e+19
  2.8781497780e+00  1.4679608601e+21  9.8705765025e+19
  2.8838641720e+00  1.4626629569e+21  9.7720492880e+19
  2.8895785660e+00  1.4574914974e+21  9.6752191958e+19
  2.8952929600e+00  1.4524428154e+21  9.5800482680e+19
  2.9010073540e+00  1.4475133829e+21  9.4864995663e+19
  2.9067217480e+00  1.4426998031e+21  9.3945371404e+19
  2.9124361420e+00  1.4379988031e+21  9.3041259990e+19
  2.9181505360e+00  1.4334072271e+21  9.2152320802e+19
  2.9238649300e+00  1.4289220311e+21  9.1278222238e+19
  2.9295793240e+00  1.4245402788e+21  9.0418641445e+19
  2.9352937180e+00  1.4202591389e+21  8.9573264053e+19
  2.9410081120e+00  1.4160758821e+21  8.8741783921e+19
  2.9467225060e+00  1.4119878765e+21  8.7923902899e+19
  2.9524369000e+00  1.4079925829e+21  8.7119330579e+19
  2.9581512940e+00  1.4040875490e+21  8.6327784077e+19
  2.9638656880e+00  1.4002704050e+21  8.5548987802e+19
  2.9695800820e+00  1.3965388602e+21  8.4782673243e+19
  2.9752944760e+00  1.3928907013e+21  8.4028578765e+19
  2.9810088700e+00  1.3893237909e+21  8.3286449401e+19
  2.9867232640e+00  1.3858360651e+21  8.2556036661e+19
  2.9924376580e+00  1.3824255301e+21  8.1837098341e+19
  2.9981520520e+00  1.3790902581e+21  8.1129398343e+19
  3.0038664460e+00  1.3758283829e+21  8.0432706493e+19
  3.0095808400e+00  1.3726380974e+21  7.9746798374e+19
  3.0152952340e+00  1.3695176518e+21  7.9071455160e+19
