#  Energy (ev)    Absorption NP      Absorption MG
  9.5239900000e-01  3.0667082183e+14  4.6248067977e+13
  9.5811339400e-01  3.0759666561e+14  4.6812362982e+13
  9.6382778800e-01  3.0850872977e+14  4.7383523547e+13
  9.6954218200e-01  3.0940724334e+14  4.7961682998e+13
  9.7525657600e-01  3.1029243850e+14  4.8546977199e+13
  9.8097097000e-01  3.1116455072e+14  4.9139544602e+13
  9.8668536400e-01  3.1202381882e+14  4.9739526299e+13
  9.9239975800e-01  3.1287048508e+14  5.0347066082e+13
  9.9811415200e-01  3.1370479541e+14  5.0962310493e+13
  1.0038285460e+00  3.1452699939e+14  5.1585408885e+13
  1.0095429400e+00  3.1533735047e+14  5.2216513478e+13
  1.0152573340e+00  3.1613610604e+14  5.2855779422e+13
  1.0209717280e+00  3.1692352764e+14  5.3503364850e+13
  1.0266861220e+00  3.1769988104e+14  5.4159430946e+13
  1.0324005160e+00  3.1846543647e+14  5.4824142006e+13
  1.0381149100e+00  3.1922046871e+14  5.5497665500e+13
  1.0438293040e+00  3.1996525731e+14  5.6180172138e+13
  1.0495436980e+00  3.2070008674e+14  5.6871835934e+13
  1.0552580920e+00  3.2142524658e+14  5.7572834275e+13
  1.0609724860e+00  3.2214103172e+14  5.8283347989e+13
  1.0666868800e+00  3.2284774255e+14  5.9003561414e+13
  1.0724012740e+00  3.2354568514e+14  5.9733662466e+13
  1.0781156680e+00  3.2423517148e+14  6.0473842715e+13
  1.0838300620e+00  3.2491651971e+14  6.1224297451e+13
  1.0895444560e+00  3.2559005431e+14  6.1985225765e+13
  1.0952588500e+00  3.2625610635e+14  6.2756830618e+13
  1.1009732440e+00  3.2691501373e+14  6.3539318916e+13
  1.1066876380e+00  3.2756712147e+14  6.4332901589e+13
  1.1124020320e+00  3.2821278189e+14  6.5137793665e+13
  1.1181164260e+00  3.2885235496e+14  6.5954214346e+13
  1.1238308200e+00  3.2948620854e+14  6.6782387091e+13
  1.1295452140e+00  3.3011471865e+14  6.7622539688e+13
  1.1352596080e+00  3.3073826979e+14  6.8474904336e+13
  1.1409740020e+00  3.3135725522e+14  6.9339717726e+13
  1.1466883960e+00  3.3197207731e+14  7.0217221116e+13
  1.1524027900e+00  3.3258314781e+14  7.1107660416e+13
  1.1581171840e+00  3.3319088818e+14  7.2011286266e+13
  1.1638315780e+00  3.3379572998e+14  7.2928354116e+13
  1.1695459720e+00  3.3439811516e+14  7.3859124308e+13
  1.1752603660e+00  3.3499849645e+14  7.4803862154e+13
  1.1809747600e+00  3.3559733769e+14  7.5762838019e+13
  1.1866891540e+00  3.3619511426e+14  7.6736327395e+13
  1.1924035480e+00  3.3679231341e+14  7.7724610986e+13
  1.1981179420e+00  3.3738943471e+14  7.8727974780e+13
  1.2038323360e+00  3.3798699041e+14  7.9746710128e+13
  1.2095467300e+00  3.3858550590e+14  8.0781113817e+13
  1.2152611240e+00  3.3918552009e+14  8.1831488148e+13
  1.2209755180e+00  3.3978758589e+14  8.2898141001e+13
  1.2266899120e+00  3.4039227065e+14  8.3981385912e+13
  1.2324043060e+00  3.4100015658e+14  8.5081542133e+13
  1.2381187000e+00  3.4161184127e+14  8.6198934705e+13
  1.2438330940e+00  3.4222793814e+14  8.7333894517e+13
  1.2495474880e+00  3.4284907693e+14  8.8486758362e+13
  1.2552618820e+00  3.4347590417e+14  8.9657868998e+13
  1.2609762760e+00  3.4410908377e+14  9.0847575200e+13
  1.2666906700e+00  3.4474929746e+14  9.2056231801e+13
  1.2724050640e+00  3.4539724534e+14  9.3284199742e+13
  1.2781194580e+00  3.4605364647e+14  9.4531846105e+13
  1.2838338520e+00  3.4671923935e+14  9.5799544147e+13
  1.2895482460e+00  3.4739478254e+14  9.7087673322e+13
  1.2952626400e+00  3.4808105520e+14  9.8396619304e+13
  1.3009770340e+00  3.4877885770e+14  9.9726773993e+13
  1.3066914280e+00  3.4948901217e+14  1.0107853552e+14
  1.3124058220e+00  3.5021236313e+14  1.0245230825e+14
  1.3181202160e+00  3.5094977811e+14  1.0384850274e+14
  1.3238346100e+00  3.5170214822e+14  1.0526753576e+14
  1.3295490040e+00  3.5247038881e+14  1.0670983020e+14
  1.3352633980e+00  3.5325544009e+14  1.0817581508e+14
  1.3409777920e+00  3.5405826775e+14  1.0966592546e+14
  1.3466921860e+00  3.5487986365e+14  1.1118060235e+14
  1.3524065800e+00  3.5572124640e+14  1.1272029268e+14
  1.3581209740e+00  3.5658346208e+14  1.1428544912e+14
  1.3638353680e+00  3.5746758489e+14  1.1587653005e+14
  1.3695497620e+00  3.5837471775e+14  1.1749399934e+14
  1.3752641560e+00  3.5930599308e+14  1.1913832624e+14
  1.3809785500e+00  3.6026257334e+14  1.2080998520e+14
  1.3866929440e+00  3.6124565182e+14  1.2250945568e+14
  1.3924073380e+00  3.6225645321e+14  1.2423722191e+14
  1.3981217320e+00  3.6329623432e+14  1.2599377265e+14
  1.4038361260e+00  3.6436628470e+14  1.2777960096e+14
  1.4095505200e+00  3.6546792735e+14  1.2959520384e+14
  1.4152649140e+00  3.6660251931e+14  1.3144108199e+14
  1.4209793080e+00  3.6777145230e+14  1.3331773939e+14
  1.4266937020e+00  3.6897615342e+14  1.3522568295e+14
  1.4324080960e+00  3.7021808566e+14  1.3716542208e+14
  1.4381224900e+00  3.7149874860e+14  1.3913746826e+14
  1.4438368840e+00  3.7281967894e+14  1.4114233453e+14
  1.4495512780e+00  3.7418245108e+14  1.4318053497e+14
  1.4552656720e+00  3.7558867768e+14  1.4525258414e+14
  1.4609800660e+00  3.7704001020e+14  1.4735899648e+14
  1.4666944600e+00  3.7853813935e+14  1.4950028563e+14
  1.4724088540e+00  3.8008479563e+14  1.5167696373e+14
  1.4781232480e+00  3.8168174971e+14  1.5388954071e+14
  1.4838376420e+00  3.8333081285e+14  1.5613852346e+14
  1.4895520360e+00  3.8503383728e+14  1.5842441496e+14
  1.4952664300e+00  3.8679271651e+14  1.6074771343e+14
  1.5009808240e+00  3.8860938562e+14  1.6310891130e+14
  1.5066952180e+00  3.9048582145e+14  1.6550849424e+14
  1.5124096120e+00  3.9242404282e+14  1.6794694005e+14
  1.5181240060e+00  3.9442611064e+14  1.7042471750e+14
  1.5238384000e+00  3.9649412795e+14  1.7294228517e+14
  1.5295527940e+00  3.9863023996e+14  1.7550009009e+14
  1.5352671880e+00  4.0083663393e+14  1.7809856646e+14
  1.5409815820e+00  4.0311553908e+14  1.8073813421e+14
  1.5466959760e+00  4.0546922637e+14  1.8341919746e+14
  1.5524103700e+00  4.0790000818e+14  1.8614214302e+14
  1.5581247640e+00  4.1041023795e+14  1.8890733870e+14
  1.5638391580e+00  4.1300230972e+14  1.9171513162e+14
  1.5695535520e+00  4.1567865757e+14  1.9456584635e+14
  1.5752679460e+00  4.1844175494e+14  1.9745978311e+14
  1.5809823400e+00  4.2129411392e+14  2.0039721576e+14
  1.5866967340e+00  4.2423828438e+14  2.0337838979e+14
  1.5924111280e+00  4.2727685295e+14  2.0640352016e+14
  1.5981255220e+00  4.3041244206e+14  2.0947278915e+14
  1.6038399160e+00  4.3364770863e+14  2.1258634409e+14
  1.6095543100e+00  4.3698534287e+14  2.1574429494e+14
  1.6152687040e+00  4.4042806684e+14  2.1894671195e+14
  1.6209830980e+00  4.4397863289e+14  2.2219362309e+14
  1.6266974920e+00  4.4763982205e+14  2.2548501152e+14
  1.6324118860e+00  4.5141444228e+14  2.2882081293e+14
  1.6381262800e+00  4.5530532654e+14  2.3220091287e+14
  1.6438406740e+00  4.5931533084e+14  2.3562514394e+14
  1.6495550680e+00  4.6344733209e+14  2.3909328301e+14
  1.6552694620e+00  4.6770422592e+14  2.4260504838e+14
  1.6609838560e+00  4.7208892429e+14  2.4616009681e+14
  1.6666982500e+00  4.7660435313e+14  2.4975802068e+14
  1.6724126440e+00  4.8125344971e+14  2.5339834495e+14
  1.6781270380e+00  4.8603916013e+14  2.5708052424e+14
  1.6838414320e+00  4.9096443651e+14  2.6080393985e+14
  1.6895558260e+00  4.9603223432e+14  2.6456789676e+14
  1.6952702200e+00  5.0124550950e+14  2.6837162071e+14
  1.7009846140e+00  5.0660721561e+14  2.7221425527e+14
  1.7066990080e+00  5.1212030092e+14  2.7609485896e+14
  1.7124134020e+00  5.1778770554e+14  2.8001240244e+14
  1.7181277960e+00  5.2361235846e+14  2.8396576576e+14
  1.7238421900e+00  5.2959717475e+14  2.8795373571e+14
  1.7295565840e+00  5.3574505265e+14  2.9197500329e+14
  1.7352709780e+00  5.4205887087e+14  2.9602816127e+14
  1.7409853720e+00  5.4854148590e+14  3.0011170191e+14
  1.7466997660e+00  5.5519572942e+14  3.0422401486e+14
  1.7524141600e+00  5.6202440598e+14  3.0836338524e+14
  1.7581285540e+00  5.6903029070e+14  3.1252799185e+14
  1.7638429480e+00  5.7621612727e+14  3.1671590573e+14
  1.7695573420e+00  5.8358462617e+14  3.2092508881e+14
  1.7752717360e+00  5.9113846317e+14  3.2515339295e+14
  1.7809861300e+00  5.9888027812e+14  3.2939855917e+14
  1.7867005240e+00  6.0681267405e+14  3.3365821720e+14
  1.7924149180e+00  6.1493821673e+14  3.3792988539e+14
  1.7981293120e+00  6.2325943454e+14  3.4221097083e+14
  1.8038437060e+00  6.3177881883e+14  3.4649877000e+14
  1.8095581000e+00  6.4049882473e+14  3.5079046957e+14
  1.8152724940e+00  6.4942187250e+14  3.5508314775e+14
  1.8209868880e+00  6.5855034934e+14  3.5937377594e+14
  1.8267012820e+00  6.6788661181e+14  3.6365922077e+14
  1.8324156760e+00  6.7743298881e+14  3.6793624657e+14
  1.8381300700e+00  6.8719178516e+14  3.7220151826e+14
  1.8438444640e+00  6.9716528580e+14  3.7645160458e+14
  1.8495588580e+00  7.0735576063e+14  3.8068298182e+14
  1.8552732520e+00  7.1776546997e+14  3.8489203788e+14
  1.8609876460e+00  7.2839667068e+14  3.8907507678e+14
  1.8667020400e+00  7.3925162292e+14  3.9322832350e+14
  1.8724164340e+00  7.5033259753e+14  3.9734792927e+14
  1.8781308280e+00  7.6164188402e+14  4.0142997714e+14
  1.8838452220e+00  7.7318179917e+14  4.0547048797e+14
  1.8895596160e+00  7.8495469613e+14  4.0946542665e+14
  1.8952740100e+00  7.9696297410e+14  4.1341070870e+14
  1.9009884040e+00  8.0920908842e+14  4.1730220707e+14
  1.9067027980e+00  8.2169556101e+14  4.2113575919e+14
  1.9124171920e+00  8.3442499124e+14  4.2490717423e+14
  1.9181315860e+00  8.4740006691e+14  4.2861224051e+14
  1.9238459800e+00  8.6062357547e+14  4.3224673305e+14
  1.9295603740e+00  8.7409841521e+14  4.3580642116e+14
  1.9352747680e+00  8.8782760635e+14  4.3928707613e+14
  1.9409891620e+00  9.0181430199e+14  4.4268447891e+14
  1.9467035560e+00  9.1606179862e+14  4.4599442770e+14
  1.9524179500e+00  9.3057354616e+14  4.4921274551e+14
  1.9581323440e+00  9.4535315728e+14  4.5233528757e+14
  1.9638467380e+00  9.6040441588e+14  4.5535794861e+14
  1.9695611320e+00  9.7573128451e+14  4.5827666987e+14
  1.9752755260e+00  9.9133791047e+14  4.6108744595e+14
  1.9809899200e+00  1.0072286305e+15  4.6378633132e+14
  1.9867043140e+00  1.0234079736e+15  4.6636944660e+14
  1.9924187080e+00  1.0398806621e+15  4.6883298442e+14
  1.9981331020e+00  1.0566516103e+15  4.7117321505e+14
  2.0038474960e+00  1.0737259206e+15  4.7338649156e+14
  2.0095618900e+00  1.0911088770e+15  4.7546925468e+14
  2.0152762840e+00  1.1088059355e+15  4.7741803727e+14
  2.0209906780e+00  1.1268227108e+15  4.7922946835e+14
  2.0267050720e+00  1.1451649599e+15  4.8090027692e+14
  2.0324194660e+00  1.1638385614e+15  4.8242729522e+14
  2.0381338600e+00  1.1828494902e+15  4.8380746188e+14
  2.0438482540e+00  1.2022037880e+15  4.8503782460e+14
  2.0495626480e+00  1.2219075287e+15  4.8611554269e+14
  2.0552770420e+00  1.2419667783e+15  4.8703788931e+14
  2.0609914360e+00  1.2623875497e+15  4.8780225366e+14
  2.0667058300e+00  1.2831757510e+15  4.8840614295e+14
  2.0724202240e+00  1.3043371278e+15  4.8884718442e+14
  2.0781346180e+00  1.3258771993e+15  4.8912312738e+14
  2.0838490120e+00  1.3478011871e+15  4.8923184533e+14
  2.0895634060e+00  1.3701139379e+15  4.8917133841e+14
  2.0952778000e+00  1.3928198379e+15  4.8893973595e+14
  2.1009921940e+00  1.4159227209e+15  4.8853529959e+14
  2.1067065880e+00  1.4394257689e+15  4.8795642680e+14
  2.1124209820e+00  1.4633314055e+15  4.8720165495e+14
  2.1181353760e+00  1.4876411813e+15  4.8626966610e+14
  2.1238497700e+00  1.5123556536e+15  4.8515929256e+14
  2.1295641640e+00  1.5374742585e+15  4.8386952327e+14
  2.1352785580e+00  1.5629951771e+15  4.8239951114e+14
  2.1409929520e+00  1.5889151960e+15  4.8074858137e+14
  2.1467073460e+00  1.6152295630e+15  4.7891624089e+14
  2.1524217400e+00  1.6419318388e+15  4.7690218887e+14
  2.1581361340e+00  1.6690137453e+15  4.7470632843e+14
  2.1638505280e+00  1.6964650135e+15  4.7232877950e+14
  2.1695649220e+00  1.7242732302e+15  4.6976989278e+14
  2.1752793160e+00  1.7524236869e+15  4.6703026491e+14
  2.1809937100e+00  1.7808992327e+15  4.6411075461e+14
  2.1867081040e+00  1.8096801324e+15  4.6101249982e+14
  2.1924224980e+00  1.8387439336e+15  4.5773693556e+14
  2.1981368920e+00  1.8680653444e+15  4.5428581259e+14
  2.2038512860e+00  1.8976161252e+15  4.5066121629e+14
  2.2095656800e+00  1.9273649968e+15  4.4686558588e+14
  2.2152800740e+00  1.9572775688e+15  4.4290173341e+14
  2.2209944680e+00  1.9873162913e+15  4.3877286236e+14
  2.2267088620e+00  2.0174404326e+15  4.3448258530e+14
  2.2324232560e+00  2.0476060859e+15  4.3003494043e+14
  2.2381376500e+00  2.0777662096e+15  4.2543440639e+14
  2.2438520440e+00  2.1078707018e+15  4.2068591485e+14
  2.2495664380e+00  2.1378665135e+15  4.1579486066e+14
  2.2552808320e+00  2.1676978007e+15  4.1076710870e+14
  2.2609952260e+00  2.1973061187e+15  4.0560899734e+14
  2.2667096200e+00  2.2266306585e+15  4.0032733772e+14
  2.2724240140e+00  2.2556085257e+15  3.9492940871e+14
  2.2781384080e+00  2.2841750618e+15  3.8942294694e+14
  2.2838528020e+00  2.3122642057e+15  3.8381613175e+14
  2.2895671960e+00  2.3398088941e+15  3.7811756471e+14
  2.2952815900e+00  2.3667414963e+15  3.7233624367e+14
  2.3009959840e+00  2.3929942803e+15  3.6648153119e+14
  2.3067103780e+00  2.4184999045e+15  3.6056311741e+14
  2.3124247720e+00  2.4431919287e+15  3.5459097775e+14
  2.3181391660e+00  2.4670053376e+15  3.4857532541e+14
  2.3238535600e+00  2.4898770709e+15  3.4252655940e+14
  2.3295679540e+00  2.5117465490e+15  3.3645520852e+14
  2.3352823480e+00  2.5325561893e+15  3.3037187195e+14
  2.3409967420e+00  2.5522519023e+15  3.2428715726e+14
  2.3467111360e+00  2.5707835606e+15  3.1821161670e+14
  2.3524255300e+00  2.5881054322e+15  3.1215568258e+14
  2.3581399240e+00  2.6041765715e+15  3.0612960288e+14
  2.3638543180e+00  2.6189611600e+15  3.0014337783e+14
  2.3695687120e+00  2.6324287927e+15  2.9420669872e+14
  2.3752831060e+00  2.6445547042e+15  2.8832888951e+14
  2.3809975000e+00  2.6553199325e+15  2.8251885247e+14
  2.3867118940e+00  2.6647114167e+15  2.7678501842e+14
  2.3924262880e+00  2.6727220302e+15  2.7113530226e+14
  2.3981406820e+00  2.6793505475e+15  2.6557706456e+14
  2.4038550760e+00  2.6846015492e+15  2.6011707938e+14
  2.4095694700e+00  2.6884852660e+15  2.5476150883e+14
  2.4152838640e+00  2.6910173673e+15  2.4951588446e+14
  2.4209982580e+00  2.6922186995e+15  2.4438509550e+14
  2.4267126520e+00  2.6921149794e+15  2.3937338385e+14
  2.4324270460e+00  2.6907364495e+15  2.3448434557e+14
  2.4381414400e+00  2.6881175024e+15  2.2972093856e+14
  2.4438558340e+00  2.6842962804e+15  2.2508549597e+14
  2.4495702280e+00  2.6793142589e+15  2.2057974482e+14
  2.4552846220e+00  2.6732158185e+15  2.1620482925e+14
  2.4609990160e+00  2.6660478143e+15  2.1196133777e+14
  2.4667134100e+00  2.6578591477e+15  2.0784933395e+14
  2.4724278040e+00  2.6487003453e+15  2.0386838969e+14
  2.4781421980e+00  2.6386231521e+15  2.0001762075e+14
  2.4838565920e+00  2.6276801407e+15  1.9629572353e+14
  2.4895709860e+00  2.6159243426e+15  1.9270101294e+14
  2.4952853800e+00  2.6034089026e+15  1.8923146037e+14
  2.5009997740e+00  2.5901867587e+15  1.8588473167e+14
  2.5067141680e+00  2.5763103506e+15  1.8265822441e+14
  2.5124285620e+00  2.5618313556e+15  1.7954910417e+14
  2.5181429560e+00  2.5468004542e+15  1.7655433954e+14
  2.5238573500e+00  2.5312671233e+15  1.7367073545e+14
  2.5295717440e+00  2.5152794589e+15  1.7089496478e+14
  2.5352861380e+00  2.4988840245e+15  1.6822359795e+14
  2.5410005320e+00  2.4821257272e+15  1.6565313041e+14
  2.5467149260e+00  2.4650477169e+15  1.6318000805e+14
  2.5524293200e+00  2.4476913091e+15  1.6080065035e+14
  2.5581437140e+00  2.4300959296e+15  1.5851147142e+14
  2.5638581080e+00  2.4122990770e+15  1.5630889883e+14
  2.5695725020e+00  2.3943363047e+15  1.5418939044e+14
  2.5752868960e+00  2.3762412169e+15  1.5214944915e+14
  2.5810012900e+00  2.3580454796e+15  1.5018563581e+14
  2.5867156840e+00  2.3397788437e+15  1.4829458025e+14
  2.5924300780e+00  2.3214691780e+15  1.4647299069e+14
  2.5981444720e+00  2.3031425117e+15  1.4471766156e+14
  2.6038588660e+00  2.2848230843e+15  1.4302547985e+14
  2.6095732600e+00  2.2665334017e+15  1.4139343021e+14
  2.6152876540e+00  2.2482942967e+15  1.3981859874e+14
  2.6210020480e+00  2.2301249939e+15  1.3829817580e+14
  2.6267164420e+00  2.2120431773e+15  1.3682945780e+14
  2.6324308360e+00  2.1940650592e+15  1.3540984812e+14
  2.6381452300e+00  2.1762054508e+15  1.3403685731e+14
  2.6438596240e+00  2.1584778329e+15  1.3270810260e+14
  2.6495740180e+00  2.1408944265e+15  1.3142130682e+14
  2.6552884120e+00  2.1234662624e+15  1.3017429689e+14
  2.6610028060e+00  2.1062032500e+15  1.2896500180e+14
  2.6667172000e+00  2.0891142443e+15  1.2779145036e+14
  2.6724315940e+00  2.0722071112e+15  1.2665176856e+14
  2.6781459880e+00  2.0554887906e+15  1.2554417675e+14
  2.6838603820e+00  2.0389653574e+15  1.2446698665e+14
  2.6895747760e+00  2.0226420803e+15  1.2341859820e+14
  2.6952891700e+00  2.0065234775e+15  1.2239749635e+14
  2.7010035640e+00  1.9906133705e+15  1.2140224773e+14
  2.7067179580e+00  1.9749149354e+15  1.2043149737e+14
  2.7124323520e+00  1.9594307507e+15  1.1948396533e+14
  2.7181467460e+00  1.9441628438e+15  1.1855844344e+14
  2.7238611400e+00  1.9291127342e+15  1.1765379198e+14
  2.7295755340e+00  1.9142814742e+15  1.1676893648e+14
  2.7352899280e+00  1.8996696879e+15  1.1590286458e+14
  2.7410043220e+00  1.8852776071e+15  1.1505462294e+14
  2.7467187160e+00  1.8711051053e+15  1.1422331422e+14
  2.7524331100e+00  1.8571517297e+15  1.1340809424e+14
  2.7581475040e+00  1.8434167304e+15  1.1260816914e+14
  2.7638618980e+00  1.8298990890e+15  1.1182279268e+14
  2.7695762920e+00  1.8165975437e+15  1.1105126365e+14
  2.7752906860e+00  1.8035106136e+15  1.1029292340e+14
  2.7810050800e+00  1.7906366213e+15  1.0954715341e+14
  2.7867194740e+00  1.7779737134e+15  1.0881337307e+14
  2.7924338680e+00  1.7655198800e+15  1.0809103745e+14
  2.7981482620e+00  1.7532729721e+15  1.0737963524e+14
  2.8038626560e+00  1.7412307187e+15  1.0667868680e+14
  2.8095770500e+00  1.7293907413e+15  1.0598774225e+14
  2.8152914440e+00  1.7177505688e+15  1.0530637974e+14
  2.8210058380e+00  1.7063076496e+15  1.0463420368e+14
  2.8267202320e+00  1.6950593641e+15  1.0397084322e+14
  2.8324346260e+00  1.6840030353e+15  1.0331595068e+14
  2.8381490200e+00  1.6731359388e+15  1.0266920016e+14
  2.8438634140e+00  1.6624553125e+15  1.0203028614e+14
  2.8495778080e+00  1.6519583641e+15  1.0139892226e+14
  2.8552922020e+00  1.6416422794e+15  1.0077484006e+14
  2.8610065960e+00  1.6315042293e+15  1.0015778789e+14
  2.8667209900e+00  1.6215413757e+15  9.9547529816e+13
  2.8724353840e+00  1.6117508776e+15  9.8943844630e+13
  2.8781497780e+00  1.6021298963e+15  9.8346524887e+13
  2.8838641720e+00  1.5926756000e+15  9.7755376030e+13
  2.8895785660e+00  1.5833851681e+15  9.7170215546e+13
  2.8952929600e+00  1.5742557954e+15  9.6590872181e+13
  2.9010073540e+00  1.5652846949e+15  9.6017185202e+13
  2.9067217480e+00  1.5564691014e+15  9.5449003705e+13
  2.9124361420e+00  1.5478062740e+15  9.4886185961e+13
  2.9181505360e+00  1.5392934987e+15  9.4328598810e+13
  2.9238649300e+00  1.5309280905e+15  9.3776117085e+13
  2.9295793240e+00  1.5227073951e+15  9.3228623080e+13
  2.9352937180e+00  1.5146287911e+15  9.2686006047e+13
  2.9410081120e+00  1.5066896906e+15  9.2148161727e+13
  2.9467225060e+00  1.4988875411e+15  9.1614991911e+13
  2.9524369000e+00  1.4912198262e+15  9.1086404026e+13
  2.9581512940e+00  1.4836840668e+15  9.0562310759e+13
  2.9638656880e+00  1.4762778213e+15  9.0042629689e+13
  2.9695800820e+00  1.4689986867e+15  8.9527282955e+13
  2.9752944760e+00  1.4618442988e+15  8.9016196944e+13
  2.9810088700e+00  1.4548123324e+15  8.8509301992e+13
  2.9867232640e+00  1.4479005019e+15  8.8006532113e+13
  2.9924376580e+00  1.4411065613e+15  8.7507824742e+13
  2.9981520520e+00  1.4344283041e+15  8.7013120493e+13
  3.0038664460e+00  1.4278635633e+15  8.6522362939e+13
  3.0095808400e+00  1.4214102116e+15  8.6035498400e+13
  3.0152952340e+00  1.4150661610e+15  8.5552475750e+13
