#  Energy (ev)    Absorption NP      Absorption MG
  9.5239900000e-01  5.4809088690e+29  2.1605325944e+27
  9.6573258600e-01  5.6979866500e+29  2.2937980129e+27
  9.7906617200e-01  5.9201380732e+29  2.4333603744e+27
  9.9239975800e-01  6.1473321632e+29  2.5796035292e+27
  1.0057333440e+00  6.3796695234e+29  2.7328507964e+27
  1.0190669300e+00  6.6173884444e+29  2.8932715189e+27
  1.0324005160e+00  6.8607497913e+29  3.0609229226e+27
  1.0457341020e+00  7.1098942408e+29  3.2359035669e+27
  1.0590676880e+00  7.3648017987e+29  3.4184905497e+27
  1.0724012740e+00  7.6254031700e+29  3.6091341887e+27
  1.0857348600e+00  7.8917571563e+29  3.8083005462e+27
  1.0990684460e+00  8.1641375372e+29  4.0162893900e+27
  1.1124020320e+00  8.4429396376e+29  4.2331902370e+27
  1.1257356180e+00  8.7284740883e+29  4.4590300383e+27
  1.1390692040e+00  9.0208271197e+29  4.6939976894e+27
  1.1524027900e+00  9.3199245504e+29  4.9385498663e+27
  1.1657363760e+00  9.6257629900e+29  5.1932912526e+27
  1.1790699620e+00  9.9386133710e+29  5.4587159710e+27
  1.1924035480e+00  1.0259006923e+30  5.7350305764e+27
  1.2057371340e+00  1.0587494721e+30  6.0222259049e+27
  1.2190707200e+00  1.0924380193e+30  6.3203560673e+27
  1.2324043060e+00  1.1269669876e+30  6.6297923135e+27
  1.2457378920e+00  1.1623312011e+30  6.9512210252e+27
  1.2590714780e+00  1.1985534401e+30  7.2853646831e+27
  1.2724050640e+00  1.2356982017e+30  7.6326520314e+27
  1.2857386500e+00  1.2738508770e+30  7.9931293739e+27
  1.2990722360e+00  1.3130781836e+30  8.3667138131e+27
  1.3124058220e+00  1.3534046193e+30  8.7535908125e+27
  1.3257394080e+00  1.3948285281e+30  9.1544117660e+27
  1.3390729940e+00  1.4373673091e+30  9.5700972072e+27
  1.3524065800e+00  1.4810934017e+30  1.0001388507e+28
  1.3657401660e+00  1.5261272828e+30  1.0448528480e+28
  1.3790737520e+00  1.5725898990e+30  1.0911367641e+28
  1.3924073380e+00  1.6205546196e+30  1.1389836162e+28
  1.4057409240e+00  1.6700433894e+30  1.1884389064e+28
  1.4190745100e+00  1.7210756616e+30  1.2396023885e+28
  1.4324080960e+00  1.7737309880e+30  1.2925819980e+28
  1.4457416820e+00  1.8281695827e+30  1.3474372359e+28
  1.4590752680e+00  1.8845882467e+30  1.4041617230e+28
  1.4724088540e+00  1.9431463727e+30  1.4627235826e+28
  1.4857424400e+00  2.0039280406e+30  1.5231320983e+28
  1.4990760260e+00  2.0669798989e+30  1.5854731216e+28
  1.5124096120e+00  2.1323988640e+30  1.6498791045e+28
  1.5257431980e+00  2.2003950776e+30  1.7164553449e+28
  1.5390767840e+00  2.2712706739e+30  1.7852247828e+28
  1.5524103700e+00  2.3453265162e+30  1.8561418972e+28
  1.5657439560e+00  2.4227771186e+30  1.9291684342e+28
  1.5790775420e+00  2.5037552491e+30  2.0043479605e+28
  1.5924111280e+00  2.5884138406e+30  2.0818125177e+28
  1.6057447140e+00  2.6770438973e+30  2.1617101847e+28
  1.6190783000e+00  2.7701036357e+30  2.2441120249e+28
  1.6324118860e+00  2.8681250657e+30  2.3289795660e+28
  1.6457454720e+00  2.9715744705e+30  2.4162259280e+28
  1.6590790580e+00  3.0807951648e+30  2.5058226177e+28
  1.6724126440e+00  3.1960997879e+30  2.5978597882e+28
  1.6857462300e+00  3.3179489241e+30  2.6925025316e+28
  1.6990798160e+00  3.4470659535e+30  2.7898742578e+28
  1.7124134020e+00  3.5843804865e+30  2.8899653220e+28
  1.7257469880e+00  3.7308404819e+30  2.9926494273e+28
  1.7390805740e+00  3.8872616333e+30  3.0977999981e+28
  1.7524141600e+00  4.0543700619e+30  3.2054090018e+28
  1.7657477460e+00  4.2330350656e+30  3.3156016666e+28
  1.7790813320e+00  4.4245126207e+30  3.4285258903e+28
  1.7924149180e+00  4.6304894863e+30  3.5442052333e+28
  1.8057485040e+00  4.8528797408e+30  3.6624826942e+28
  1.8190820900e+00  5.0935545902e+30  3.7831098694e+28
  1.8324156760e+00  5.3542774417e+30  3.9059098852e+28
  1.8457492620e+00  5.6369656686e+30  4.0308717722e+28
  1.8590828480e+00  5.9441158293e+30  4.1580856120e+28
  1.8724164340e+00  6.2790583367e+30  4.2875637871e+28
  1.8857500200e+00  6.6458274816e+30  4.4190979464e+28
  1.8990836060e+00  7.0487737060e+30  4.5522785008e+28
  1.9124171920e+00  7.4923200883e+30  4.6866657727e+28
  1.9257507780e+00  7.9812056422e+30  4.8219653240e+28
  1.9390843640e+00  8.5211682365e+30  4.9580470389e+28
  1.9524179500e+00  9.1196149003e+30  5.0947776761e+28
  1.9657515360e+00  9.7857876281e+30  5.2318018862e+28
  1.9790851220e+00  1.0530358363e+31  5.3684607003e+28
  1.9924187080e+00  1.1364956003e+31  5.5039239245e+28
  2.0057522940e+00  1.2302327907e+31  5.6374254232e+28
  2.0190858800e+00  1.3357412325e+31  5.7683931499e+28
  2.0324194660e+00  1.4548834480e+31  5.8963526299e+28
  2.0457530520e+00  1.5899899212e+31  6.0206857698e+28
  2.0590866380e+00  1.7438519053e+31  6.1404688271e+28
  2.0724202240e+00  1.9196499816e+31  6.2545621766e+28
  2.0857538100e+00  2.1209386815e+31  6.3619180772e+28
  2.0990873960e+00  2.3517843065e+31  6.4618949703e+28
  2.1124209820e+00  2.6170249003e+31  6.5543871056e+28
  2.1257545680e+00  2.9224819598e+31  6.6397920087e+28
  2.1390881540e+00  3.2749269710e+31  6.7190595490e+28
  2.1524217400e+00  3.6817344386e+31  6.7940906090e+28
  2.1657553260e+00  4.1503346728e+31  6.8685502700e+28
  2.1790889120e+00  4.6876270088e+31  6.9489123802e+28
  2.1924224980e+00  5.2993148758e+31  7.0454836511e+28
  2.2057560840e+00  5.9887832057e+31  7.1732966347e+28
  2.2190896700e+00  6.7549689455e+31  7.3528813575e+28
  2.2324232560e+00  7.5889957467e+31  7.6107396984e+28
  2.2457568420e+00  8.4701980825e+31  7.9788469406e+28
  2.2590904280e+00  9.3631665487e+31  8.4921071071e+28
  2.2724240140e+00  1.0217936795e+32  9.1829855445e+28
  2.2857576000e+00  1.0974863142e+32  1.0073782739e+29
  2.2990911860e+00  1.1574044522e+32  1.1168716224e+29
  2.3124247720e+00  1.1967070976e+32  1.2449069330e+29
  2.3257583580e+00  1.2127402926e+32  1.3874163947e+29
  2.3390919440e+00  1.2055762043e+32  1.5388711785e+29
  2.3524255300e+00  1.1778637586e+32  1.6934232919e+29
  2.3657591160e+00  1.1340638880e+32  1.8460337062e+29
  2.3790927020e+00  1.0793686303e+32  1.9931911857e+29
  2.3924262880e+00  1.0186855892e+32  2.1330521250e+29
  2.4057598740e+00  9.5597927031e+31  2.2651187295e+29
  2.4190934600e+00  8.9406154460e+31  2.3897480517e+29
  2.4324270460e+00  8.3472769674e+31  2.5077595259e+29
  2.4457606320e+00  7.7903686092e+31  2.6202361894e+29
  2.4590942180e+00  7.2756177775e+31  2.7284401354e+29
  2.4724278040e+00  6.8053541963e+31  2.8337106463e+29
  2.4857613900e+00  6.3792140554e+31  2.9372968185e+29
  2.4990949760e+00  5.9947349073e+31  3.0401976919e+29
  2.5124285620e+00  5.6482242580e+31  3.1431230400e+29
  2.5257621480e+00  5.3357651500e+31  3.2466088185e+29
  2.5390957340e+00  5.0539328370e+31  3.3511952247e+29
  2.5524293200e+00  4.7999372606e+31  3.4575194675e+29
  2.5657629060e+00  4.5713001690e+31  3.5662466613e+29
  2.5790964920e+00  4.3654687098e+31  3.6779045635e+29
  2.5924300780e+00  4.1797287683e+31  3.7927778614e+29
  2.6057636640e+00  4.0114717144e+31  3.9109723533e+29
  2.6190972500e+00  3.8585588403e+31  4.0326119934e+29
  2.6324308360e+00  3.7194634568e+31  4.1580085333e+29
  2.6457644220e+00  3.5930771675e+31  4.2876561259e+29
  2.6590980080e+00  3.4783505369e+31  4.4220489293e+29
  2.6724315940e+00  3.3740606313e+31  4.5614769445e+29
  2.6857651800e+00  3.2788713375e+31  4.7059846252e+29
  2.6990987660e+00  3.1915992892e+31  4.8555436767e+29
  2.7124323520e+00  3.1114354766e+31  5.0103035556e+29
  2.7257659380e+00  3.0379277584e+31  5.1707039616e+29
  2.7390995240e+00  2.9707425297e+31  5.3373409773e+29
  2.7524331100e+00  2.9094084153e+31  5.5106899306e+29
  2.7657666960e+00  2.8532495339e+31  5.6909228990e+29
  2.7791002820e+00  2.8015469119e+31  5.8779917485e+29
  2.7924338680e+00  2.7537741599e+31  6.0719237837e+29
  2.8057674540e+00  2.7096995003e+31  6.2730839476e+29
  2.8191010400e+00  2.6692691512e+31  6.4821688695e+29
  2.8324346260e+00  2.6323757948e+31  6.6999189051e+29
  2.8457682120e+00  2.5987091070e+31  6.9267840996e+29
  2.8591017980e+00  2.5678086513e+31  7.1628390416e+29
  2.8724353840e+00  2.5392640833e+31  7.4080429841e+29
  2.8857689700e+00  2.5128850989e+31  7.6626420722e+29
  2.8991025560e+00  2.4886954830e+31  7.9273683112e+29
  2.9124361420e+00  2.4667598499e+31  8.2032435472e+29
  2.9257697280e+00  2.4469938444e+31  8.4911329169e+29
  2.9391033140e+00  2.4291185956e+31  8.7914267211e+29
  2.9524369000e+00  2.4127932951e+31  9.1041460906e+29
  2.9657704860e+00  2.3978072868e+31  9.4294149036e+29
  2.9791040720e+00  2.3841652241e+31  9.7679099926e+29
  2.9924376580e+00  2.3719938933e+31  1.0120889179e+30
  3.0057712440e+00  2.3613531809e+31  1.0489739283e+30
  3.0191048300e+00  2.3521140693e+31  1.0875408846e+30
  3.0324384160e+00  2.3440063640e+31  1.1278223856e+30
  3.0457720020e+00  2.3367919651e+31  1.1698286374e+30
  3.0591055880e+00  2.3304127715e+31  1.2136154295e+30
  3.0724391740e+00  2.3249862758e+31  1.2593224358e+30
  3.0857727600e+00  2.3206541839e+31  1.3071454916e+30
  3.0991063460e+00  2.3174153824e+31  1.3572621623e+30
  3.1124399320e+00  2.3150865473e+31  1.4097732806e+30
  3.1257735180e+00  2.3134227008e+31  1.4647145195e+30
  3.1391071040e+00  2.3122924301e+31  1.5221345370e+30
  3.1524406900e+00  2.3117564571e+31  1.5821766158e+30
  3.1657742760e+00  2.3119824609e+31  1.6450919024e+30
  3.1791078620e+00  2.3130702612e+31  1.7111668052e+30
  3.1924414480e+00  2.3149381124e+31  1.7806221457e+30
  3.2057750340e+00  2.3173675427e+31  1.8535723244e+30
  3.2191086200e+00  2.3201673636e+31  1.9300876190e+30
  3.2324422060e+00  2.3233150850e+31  2.0103148497e+30
  3.2457757920e+00  2.3269538472e+31  2.0945553264e+30
  3.2591093780e+00  2.3312476620e+31  2.1832274601e+30
  3.2724429640e+00  2.3362197855e+31  2.2767374956e+30
  3.2857765500e+00  2.3417134666e+31  2.3753664092e+30
  3.2991101360e+00  2.3475088420e+31  2.4792775048e+30
  3.3124437220e+00  2.3534952029e+31  2.5886520143e+30
  3.3257773080e+00  2.3597500484e+31  2.7038464407e+30
  3.3391108940e+00  2.3664564941e+31  2.8254352252e+30
  3.3524444800e+00  2.3737298589e+31  2.9540910708e+30
  3.3657780660e+00  2.3815027654e+31  3.0903959219e+30
  3.3791116520e+00  2.3895680746e+31  3.2347479227e+30
  3.3924452380e+00  2.3977431679e+31  3.3874617706e+30
  3.4057788240e+00  2.4060142452e+31  3.5489974923e+30
  3.4191124100e+00  2.4145359302e+31  3.7201308464e+30
  3.4324459960e+00  2.4234857522e+31  3.9019107508e+30
  3.4457795820e+00  2.4328983481e+31  4.0954235612e+30
  3.4591131680e+00  2.4426224661e+31  4.3015604407e+30
  3.4724467540e+00  2.4524387175e+31  4.5210046838e+30
  3.4857803400e+00  2.4622374826e+31  4.7544843801e+30
  3.4991139260e+00  2.4721037426e+31  5.0031036518e+30
  3.5124475120e+00  2.4822348953e+31  5.2684739271e+30
  3.5257810980e+00  2.4927613187e+31  5.5525143682e+30
  3.5391146840e+00  2.5036240356e+31  5.8570740879e+30
  3.5524482700e+00  2.5146158131e+31  6.1837102980e+30
  3.5657818560e+00  2.5255517870e+31  6.5338604459e+30
  3.5791154420e+00  2.5364235257e+31  6.9093241731e+30
  3.5924490280e+00  2.5474034469e+31  7.3126834030e+30
  3.6057826140e+00  2.5586945867e+31  7.7472991300e+30
  3.6191162000e+00  2.5703543546e+31  8.2168615675e+30
  3.6324497860e+00  2.5822447585e+31  8.7248758374e+30
  3.6457833720e+00  2.5941539524e+31  9.2745825162e+30
  3.6591169580e+00  2.6059864833e+31  9.8694959560e+30
  3.6724505440e+00  2.6178592382e+31  1.0514217914e+31
  3.6857841300e+00  2.6300198962e+31  1.1214893784e+31
  3.6991177160e+00  2.6426572713e+31  1.1978919934e+31
  3.7124513020e+00  2.6557673302e+31  1.2814144506e+31
  3.7257848880e+00  2.6691927128e+31  1.3728317728e+31
  3.7391184740e+00  2.6828053533e+31  1.4729459150e+31
  3.7524520600e+00  2.6966780815e+31  1.5827104544e+31
  3.7657856460e+00  2.7110989858e+31  1.7033614202e+31
  3.7791192320e+00  2.7264165996e+31  1.8364562115e+31
  3.7924528180e+00  2.7428503164e+31  1.9837933077e+31
  3.8057864040e+00  2.7604327451e+31  2.1472939955e+31
  3.8191199900e+00  2.7791397115e+31  2.3289818613e+31
  3.8324535760e+00  2.7991031644e+31  2.5311372482e+31
  3.8457871620e+00  2.8207299490e+31  2.7565647250e+31
  3.8591207480e+00  2.8446286112e+31  3.0088031201e+31
  3.8724543340e+00  2.8714108777e+31  3.2921341631e+31
  3.8857879200e+00  2.9015438936e+31  3.6114092406e+31
  3.8991215060e+00  2.9353889209e+31  3.9718918690e+31
  3.9124550920e+00  2.9734044653e+31  4.3793445829e+31
  3.9257886780e+00  3.0163497781e+31  4.8404092231e+31
  3.9391222640e+00  3.0653192171e+31  5.3630508125e+31
  3.9524558500e+00  3.1215744646e+31  5.9566812997e+31
  3.9657894360e+00  3.1863046724e+31  6.6317082505e+31
  3.9791230220e+00  3.2604948546e+31  7.3985963164e+31
  3.9924566080e+00  3.3449742590e+31  8.2667958066e+31
  4.0057901940e+00  3.4405349498e+31  9.2437798084e+31
  4.0191237800e+00  3.5479035382e+31  1.0333905894e+32
  4.0324573660e+00  3.6674051401e+31  1.1536248803e+32
  4.0457909520e+00  3.7983424127e+31  1.2840529891e+32
  4.0591245380e+00  3.9382993865e+31  1.4221188541e+32
  4.0724581240e+00  4.0826583656e+31  1.5631285071e+32
  4.0857917100e+00  4.2245668218e+31  1.6999415450e+32
  4.0991252960e+00  4.3554687675e+31  1.8233039329e+32
  4.1124588820e+00  4.4661868151e+31  1.9229932102e+32
  4.1257924680e+00  4.5484199554e+31  1.9896259010e+32
  4.1391260540e+00  4.5963846074e+31  2.0166443831e+32
  4.1524596400e+00  4.6081837136e+31  2.0018322762e+32
  4.1657932260e+00  4.5864288866e+31  1.9478146416e+32
  4.1791268120e+00  4.5377801499e+31  1.8613565755e+32
  4.1924603980e+00  4.4714341490e+31  1.7517222840e+32
  4.2057939840e+00  4.3970435188e+31  1.6286854301e+32
  4.2191275700e+00  4.3228285737e+31  1.5008413517e+32
  4.2324611560e+00  4.2545438680e+31  1.3746550450e+32
  4.2457947420e+00  4.1955071767e+31  1.2543171189e+32
  4.2591283280e+00  4.1473527811e+31  1.1421633267e+32
  4.2724619140e+00  4.1108767030e+31  1.0392822657e+32
  4.2857955000e+00  4.0864725778e+31  9.4601151044e+31
  4.2991290860e+00  4.0740868075e+31  8.6221298580e+31
  4.3124626720e+00  4.0730164478e+31  7.8739017192e+31
  4.3257962580e+00  4.0819455490e+31  7.2077246199e+31
  4.3391298440e+00  4.0993435786e+31  6.6144350203e+31
  4.3524634300e+00  4.1239850415e+31  6.0849902563e+31
  4.3657970160e+00  4.1552073003e+31  5.6116500502e+31
  4.3791306020e+00  4.1927221258e+31  5.1882356124e+31
  4.3924641880e+00  4.2361625850e+31  4.8095656586e+31
  4.4057977740e+00  4.2847646834e+31  4.4706901900e+31
  4.4191313600e+00  4.3374628621e+31  4.1665588517e+31
  4.4324649460e+00  4.3933190476e+31  3.8923096925e+31
  4.4457985320e+00  4.4519123861e+31  3.6438401363e+31
  4.4591321180e+00  4.5133438918e+31  3.4181315366e+31
  4.4724657040e+00  4.5778382990e+31  3.2130482185e+31
  4.4857992900e+00  4.6452755750e+31  3.0267776113e+31
  4.4991328760e+00  4.7150534900e+31  2.8573496728e+31
  4.5124664620e+00  4.7864042156e+31  2.7025738481e+31
  4.5258000480e+00  4.8588958098e+31  2.5603729882e+31
  4.5391336340e+00  4.9326816757e+31  2.4291825380e+31
  4.5524672200e+00  5.0082694556e+31  2.3080626509e+31
  4.5658008060e+00  5.0859941591e+31  2.1964333599e+31
  4.5791343920e+00  5.1656443616e+31  2.0936567045e+31
  4.5924679780e+00  5.2465705889e+31  1.9987995879e+31
  4.6058015640e+00  5.3281943464e+31  1.9107435913e+31
  4.6191351500e+00  5.4104838568e+31  1.8285171699e+31
  4.6324687360e+00  5.4939777620e+31  1.7515546219e+31
  4.6458023220e+00  5.5793194928e+31  1.6796657901e+31
  4.6591359080e+00  5.6666917794e+31  1.6127508072e+31
  4.6724694940e+00  5.7556416959e+31  1.5505018470e+31
  4.6858030800e+00  5.8454623474e+31  1.4923320787e+31
  4.6991366660e+00  5.9358163640e+31  1.4375736144e+31
  4.7124702520e+00  6.0270635326e+31  1.3857636223e+31
  4.7258038380e+00  6.1199942712e+31  1.3367745181e+31
  4.7391374240e+00  6.2151797519e+31  1.2906845688e+31
  4.7524710100e+00  6.3124930467e+31  1.2475046677e+31
  4.7658045960e+00  6.4112269947e+31  1.2069913987e+31
  4.7791381820e+00  6.5107282888e+31  1.1686959568e+31
  4.7924717680e+00  6.6110120695e+31  1.1321973437e+31
  4.8058053540e+00  6.7128174636e+31  1.0973174360e+31
  4.8191389400e+00  6.8170330315e+31  1.0641380234e+31
  4.8324725260e+00  6.9239704282e+31  1.0328110066e+31
  4.8458061120e+00  7.0331169321e+31  1.0033256745e+31
  4.8591396980e+00  7.1436034090e+31  9.7542780634e+30
  4.8724732840e+00  7.2550067672e+31  9.4875295449e+30
  4.8858068700e+00  7.3677968681e+31  9.2305564926e+30
  4.8991404560e+00  7.4830208396e+31  8.9833930063e+30
  4.9124740420e+00  7.6014695333e+31  8.7477974770e+30
  4.9258076280e+00  7.7230356573e+31  8.5251095069e+30
  4.9391412140e+00  7.8468354152e+31  8.3145541559e+30
  4.9524748000e+00  7.9720201563e+31  8.1134050010e+30
  4.9658083860e+00  8.0985956026e+31  7.9188278054e+30
  4.9791419720e+00  8.2275294819e+31  7.7298176624e+30
  4.9924755580e+00  8.3600213389e+31  7.5475928710e+30
  5.0058091440e+00  8.4965385727e+31  7.3741361104e+30
  5.0191427300e+00  8.6364554837e+31  7.2101395807e+30
  5.0324763160e+00  8.7786404453e+31  7.0540950327e+30
  5.0458099020e+00  8.9225188885e+31  6.9032800931e+30
  5.0591434880e+00  9.0686995759e+31  6.7557820282e+30
  5.0724770740e+00  9.2185928949e+31  6.6118337919e+30
  5.0858106600e+00  9.3733094260e+31  6.4733370295e+30
  5.0991442460e+00  9.5327739310e+31  6.3419913238e+30
  5.1124778320e+00  9.6958453501e+31  6.2176251665e+30
  5.1258114180e+00  9.8613863995e+31  6.0981411096e+30
  5.1391450040e+00  1.0029387694e+32  5.9811101989e+30
  5.1524785900e+00  1.0201159128e+32  5.8656522317e+30
  5.1658121760e+00  1.0378373564e+32  5.7530027244e+30
  5.1791457620e+00  1.0561748112e+32  5.6452888465e+30
  5.1924793480e+00  1.0750507483e+32  5.5435593429e+30
  5.2058129340e+00  1.0943143208e+32  5.4467450583e+30
  5.2191465200e+00  1.1138866659e+32  5.3524330603e+30
  5.2324801060e+00  1.1338510645e+32  5.2587940850e+30
  5.2458136920e+00  1.1544055267e+32  5.1660213299e+30
  5.2591472780e+00  1.1757123772e+32  5.0760530572e+30
  5.2724808640e+00  1.1977721722e+32  4.9908113549e+30
  5.2858144500e+00  1.2204346957e+32  4.9104548509e+30
  5.2991480360e+00  1.2435449000e+32  4.8331364920e+30
  5.3124816220e+00  1.2671023525e+32  4.7564797579e+30
  5.3258152080e+00  1.2912940557e+32  4.6795209260e+30
  5.3391487940e+00  1.3163645486e+32  4.6034597402e+30
  5.3524823800e+00  1.3424290038e+32  4.5305680273e+30
  5.3658159660e+00  1.3693915207e+32  4.4621755979e+30
  5.3791495520e+00  1.3970471597e+32  4.3974493268e+30
  5.3924831380e+00  1.4252882809e+32  4.3340179504e+30
  5.4058167240e+00  1.4542387295e+32  4.2699254501e+30
  5.4191503100e+00  1.4841927677e+32  4.2052528491e+30
  5.4324838960e+00  1.5154011808e+32  4.1420138532e+30
  5.4458174820e+00  1.5478849990e+32  4.0823926536e+30
  5.4591510680e+00  1.5814439453e+32  4.0268145847e+30
  5.4724846540e+00  1.6158644865e+32  3.9735036408e+30
  5.4858182400e+00  1.6511556403e+32  3.9199281918e+30
  5.4991518260e+00  1.6876051203e+32  3.8649210775e+30
  5.5124854120e+00  1.7255945376e+32  3.8096621043e+30
  5.5258189980e+00  1.7653223632e+32  3.7566589216e+30
  5.5391525840e+00  1.8066751302e+32  3.7075682351e+30
  5.5524861700e+00  1.8493716823e+32  3.6617116807e+30
  5.5658197560e+00  1.8932709648e+32  3.6165774255e+30
  5.5791533420e+00  1.9385809459e+32  3.5699142315e+30
  5.5924869280e+00  1.9857761188e+32  3.5216454765e+30
  5.6058205140e+00  2.0352770248e+32  3.4739488240e+30
  5.6191541000e+00  2.0871610166e+32  3.4293925592e+30
  5.6324876860e+00  2.1411650190e+32  3.3886928802e+30
  5.6458212720e+00  2.1969997654e+32  3.3500196025e+30
  5.6591548580e+00  2.2547186983e+32  3.3104874688e+30
  5.6724884440e+00  2.3148168497e+32  3.2685988578e+30
  5.6858220300e+00  2.3779515909e+32  3.2255503955e+30
  5.6991556160e+00  2.4445066687e+32  3.1842429348e+30
  5.7124892020e+00  2.5143783001e+32  3.1467886366e+30
  5.7258227880e+00  2.5871935287e+32  3.1126310942e+30
  5.7391563740e+00  2.6628012921e+32  3.0789247305e+30
  5.7524899600e+00  2.7416197625e+32  3.0429122308e+30
  5.7658235460e+00  2.8245181137e+32  3.0042999799e+30
