#  Energy (ev)    Absorption NP      Absorption MG
  9.5239900000e-01  6.2081858849e+29  2.0653740031e+27
  9.5811339400e-01  6.3406450227e+29  2.1179558641e+27
  9.6382778800e-01  6.4754944903e+29  2.1715385329e+27
  9.6954218200e-01  6.6127822943e+29  2.2261447101e+27
  9.7525657600e-01  6.7525578322e+29  2.2818010185e+27
  9.8097097000e-01  6.8948719236e+29  2.3385360504e+27
  9.8668536400e-01  7.0397768312e+29  2.3963780051e+27
  9.9239975800e-01  7.1873262763e+29  2.4553523086e+27
  9.9811415200e-01  7.3375754518e+29  2.5154796265e+27
  1.0038285460e+00  7.4905810397e+29  2.5767746325e+27
  1.0095429400e+00  7.6464012371e+29  2.6392457791e+27
  1.0152573340e+00  7.8050957957e+29  2.7028961537e+27
  1.0209717280e+00  7.9667260769e+29  2.7677253198e+27
  1.0266861220e+00  8.1313551225e+29  2.8337318672e+27
  1.0324005160e+00  8.2990477389e+29  2.9009162601e+27
  1.0381149100e+00  8.4698705903e+29  2.9692835037e+27
  1.0438293040e+00  8.6438922957e+29  3.0388451602e+27
  1.0495436980e+00  8.8211835222e+29  3.1096203370e+27
  1.0552580920e+00  9.0018170706e+29  3.1816354336e+27
  1.0609724860e+00  9.1858679479e+29  3.2549226377e+27
  1.0666868800e+00  9.3734134266e+29  3.3295173774e+27
  1.0724012740e+00  9.5645330901e+29  3.4054551259e+27
  1.0781156680e+00  9.7593088702e+29  3.4827680840e+27
  1.0838300620e+00  9.9578250807e+29  3.5614823062e+27
  1.0895444560e+00  1.0160168456e+30  3.6416157863e+27
  1.0952588500e+00  1.0366428200e+30  3.7231778714e+27
  1.1009732440e+00  1.0576696056e+30  3.8061701595e+27
  1.1066876380e+00  1.0791066392e+30  3.8905887867e+27
  1.1124020320e+00  1.1009636315e+30  3.9764277658e+27
  1.1181164260e+00  1.1232505799e+30  4.0636828430e+27
  1.1238308200e+00  1.1459777835e+30  4.1523552286e+27
  1.1295452140e+00  1.1691558579e+30  4.2424545538e+27
  1.1352596080e+00  1.1927957507e+30  4.3340005128e+27
  1.1409740020e+00  1.2169087556e+30  4.4270228544e+27
  1.1466883960e+00  1.2415065253e+30  4.5215596597e+27
  1.1524027900e+00  1.2666010826e+30  4.6176541337e+27
  1.1581171840e+00  1.2922048300e+30  4.7153504044e+27
  1.1638315780e+00  1.3183305574e+30  4.8146890135e+27
  1.1695459720e+00  1.3449914503e+30  4.9157028618e+27
  1.1752603660e+00  1.3722010979e+30  5.0184143252e+27
  1.1809747600e+00  1.3999735027e+30  5.1228340817e+27
  1.1866891540e+00  1.4283230929e+30  5.2289619160e+27
  1.1924035480e+00  1.4572647370e+30  5.3367894422e+27
  1.1981179420e+00  1.4868137623e+30  5.4463043455e+27
  1.2038323360e+00  1.5169859758e+30  5.5574954753e+27
  1.2095467300e+00  1.5477976878e+30  5.6703579438e+27
  1.2152611240e+00  1.5792657365e+30  5.7848973555e+27
  1.2209755180e+00  1.6114075133e+30  5.9011324064e+27
  1.2266899120e+00  1.6442409868e+30  6.0190953456e+27
  1.2324043060e+00  1.6777847262e+30  6.1388301398e+27
  1.2381187000e+00  1.7120579215e+30  6.2603885678e+27
  1.2438330940e+00  1.7470804021e+30  6.3838248402e+27
  1.2495474880e+00  1.7828726545e+30  6.5091896116e+27
  1.2552618820e+00  1.8194558384e+30  6.6365243909e+27
  1.2609762760e+00  1.8568518037e+30  6.7658573226e+27
  1.2666906700e+00  1.8950831102e+30  6.8972011143e+27
  1.2724050640e+00  1.9341730490e+30  7.0305535437e+27
  1.2781194580e+00  1.9741456697e+30  7.1659005516e+27
  1.2838338520e+00  2.0150258105e+30  7.3032214859e+27
  1.2895482460e+00  2.0568391338e+30  7.4424956731e+27
  1.2952626400e+00  2.0996121646e+30  7.5837092394e+27
  1.3009770340e+00  2.1433723319e+30  7.7268610205e+27
  1.3066914280e+00  2.1881480115e+30  7.8719665134e+27
  1.3124058220e+00  2.2339685673e+30  8.0190591226e+27
  1.3181202160e+00  2.2808643927e+30  8.1681883910e+27
  1.3238346100e+00  2.3288669482e+30  8.3194154101e+27
  1.3295490040e+00  2.3780087982e+30  8.4728060970e+27
  1.3352633980e+00  2.4283236446e+30  8.6284234145e+27
  1.3409777920e+00  2.4798463605e+30  8.7863198299e+27
  1.3466921860e+00  2.5326130245e+30  8.9465313149e+27
  1.3524065800e+00  2.5866609573e+30  9.1090739661e+27
  1.3581209740e+00  2.6420287635e+30  9.2739439217e+27
  1.3638353680e+00  2.6987563774e+30  9.4411207004e+27
  1.3695497620e+00  2.7568851173e+30  9.6105735137e+27
  1.3752641560e+00  2.8164577440e+30  9.7822695736e+27
  1.3809785500e+00  2.8775185266e+30  9.9561830437e+27
  1.3866929440e+00  2.9401133112e+30  1.0132303125e+28
  1.3924073380e+00  3.0042895935e+30  1.0310639865e+28
  1.3981217320e+00  3.0700965906e+30  1.0491226612e+28
  1.4038361260e+00  3.1375853126e+30  1.0674118598e+28
  1.4095505200e+00  3.2068086313e+30  1.0859387739e+28
  1.4152649140e+00  3.2778213472e+30  1.1047114442e+28
  1.4209793080e+00  3.3506802528e+30  1.1237377704e+28
  1.4266937020e+00  3.4254441963e+30  1.1430245147e+28
  1.4324080960e+00  3.5021741456e+30  1.1625764708e+28
  1.4381224900e+00  3.5809332553e+30  1.1823959445e+28
  1.4438368840e+00  3.6617869398e+30  1.2024826484e+28
  1.4495512780e+00  3.7448029532e+30  1.2228340411e+28
  1.4552656720e+00  3.8300514780e+30  1.2434460689e+28
  1.4609800660e+00  3.9176052223e+30  1.2643141983e+28
  1.4666944600e+00  4.0075395249e+30  1.2854345719e+28
  1.4724088540e+00  4.0999324671e+30  1.3068050953e+28
  1.4781232480e+00  4.1948649877e+30  1.3284262677e+28
  1.4838376420e+00  4.2924209997e+30  1.3503016064e+28
  1.4895520360e+00  4.3926875058e+30  1.3724375809e+28
  1.4952664300e+00  4.4957547099e+30  1.3948430520e+28
  1.5009808240e+00  4.6017161259e+30  1.4175282971e+28
  1.5066952180e+00  4.7106686803e+30  1.4405037770e+28
  1.5124096120e+00  4.8227128138e+30  1.4637788481e+28
  1.5181240060e+00  4.9379525800e+30  1.4873606391e+28
  1.5238384000e+00  5.0564957470e+30  1.5112532941e+28
  1.5295527940e+00  5.1784539026e+30  1.5354577237e+28
  1.5352671880e+00  5.3039425660e+30  1.5599719266e+28
  1.5409815820e+00  5.4330813076e+30  1.5847918478e+28
  1.5466959760e+00  5.5659938772e+30  1.6099126464e+28
  1.5524103700e+00  5.7028083380e+30  1.6353301731e+28
  1.5581247640e+00  5.8436572064e+30  1.6610424142e+28
  1.5638391580e+00  5.9886775912e+30  1.6870506573e+28
  1.5695535520e+00  6.1380113300e+30  1.7133601752e+28
  1.5752679460e+00  6.2918051171e+30  1.7399802984e+28
  1.5809823400e+00  6.4502106205e+30  1.7669238494e+28
  1.5866967340e+00  6.6133845825e+30  1.7942060204e+28
  1.5924111280e+00  6.7814889060e+30  1.8218428730e+28
  1.5981255220e+00  6.9546907219e+30  1.8498497116e+28
  1.6038399160e+00  7.1331624415e+30  1.8782396109e+28
  1.6095543100e+00  7.3170817944e+30  1.9070223612e+28
  1.6152687040e+00  7.5066318535e+30  1.9362040336e+28
  1.6209830980e+00  7.7020010481e+30  1.9657872672e+28
  1.6266974920e+00  7.9033831657e+30  1.9957722610e+28
  1.6324118860e+00  8.1109773409e+30  2.0261583329e+28
  1.6381262800e+00  8.3249880266e+30  2.0569458070e+28
  1.6438406740e+00  8.5456249429e+30  2.0881379269e+28
  1.6495550680e+00  8.7731029958e+30  2.1197424804e+28
  1.6552694620e+00  9.0076421555e+30  2.1517728604e+28
  1.6609838560e+00  9.2494672863e+30  2.1842483753e+28
  1.6666982500e+00  9.4988079175e+30  2.2171937462e+28
  1.6724126440e+00  9.7558979459e+30  2.2506378661e+28
  1.6781270380e+00  1.0020975263e+31  2.2846120278e+28
  1.6838414320e+00  1.0294281299e+31  2.3191479225e+28
  1.6895558260e+00  1.0576060483e+31  2.3542757648e+28
  1.6952702200e+00  1.0866559608e+31  2.3900228896e+28
  1.7009846140e+00  1.1166027102e+31  2.4264130956e+28
  1.7066990080e+00  1.1474712201e+31  2.4634668963e+28
  1.7124134020e+00  1.1792864017e+31  2.5012026849e+28
  1.7181277960e+00  1.2120730489e+31  2.5396386693e+28
  1.7238421900e+00  1.2458557213e+31  2.5787952936e+28
  1.7295565840e+00  1.2806586136e+31  2.6186977727e+28
  1.7352709780e+00  1.3165054089e+31  2.6593783361e+28
  1.7409853720e+00  1.3534191159e+31  2.7008778139e+28
  1.7466997660e+00  1.3914218863e+31  2.7432463004e+28
  1.7524141600e+00  1.4305348116e+31  2.7865427792e+28
  1.7581285540e+00  1.4707776975e+31  2.8308337720e+28
  1.7638429480e+00  1.5121688148e+31  2.8761912381e+28
  1.7695573420e+00  1.5547246244e+31  2.9226900927e+28
  1.7752717360e+00  1.5984594774e+31  2.9704057845e+28
  1.7809861300e+00  1.6433852898e+31  3.0194123807e+28
  1.7867005240e+00  1.6895111907e+31  3.0697815302e+28
  1.7924149180e+00  1.7368431458e+31  3.1215825373e+28
  1.7981293120e+00  1.7853835568e+31  3.1748835936e+28
  1.8038437060e+00  1.8351308379e+31  3.2297540122e+28
  1.8095581000e+00  1.8860789697e+31  3.2862671300e+28
  1.8152724940e+00  1.9382170346e+31  3.3445034117e+28
  1.8209868880e+00  1.9915287330e+31  3.4045532337e+28
  1.8267012820e+00  2.0459918855e+31  3.4665188555e+28
  1.8324156760e+00  2.1015779233e+31  3.5305152045e+28
  1.8381300700e+00  2.1582513715e+31  3.5966692788e+28
  1.8438444640e+00  2.2159693310e+31  3.6651181972e+28
  1.8495588580e+00  2.2746809661e+31  3.7360061459e+28
  1.8552732520e+00  2.3343270064e+31  3.8094806590e+28
  1.8609876460e+00  2.3948392728e+31  3.8856887868e+28
  1.8667020400e+00  2.4561402392e+31  3.9647737298e+28
  1.8724164340e+00  2.5181426439e+31  4.0468724433e+28
  1.8781308280e+00  2.5807491627e+31  4.1321145529e+28
  1.8838452220e+00  2.6438521620e+31  4.2206226920e+28
  1.8895596160e+00  2.7073335442e+31  4.3125141179e+28
  1.8952740100e+00  2.7710647035e+31  4.4079032219e+28
  1.9009884040e+00  2.8349066061e+31  4.5069043678e+28
  1.9067027980e+00  2.8987100097e+31  4.6096344009e+28
  1.9124171920e+00  2.9623158346e+31  4.7162141920e+28
  1.9181315860e+00  3.0255556987e+31  4.8267687109e+28
  1.9238459800e+00  3.0882526233e+31  4.9414253500e+28
  1.9295603740e+00  3.1502219173e+31  5.0603105017e+28
  1.9352747680e+00  3.2112722412e+31  5.1835446902e+28
  1.9409891620e+00  3.2712068491e+31  5.3112368175e+28
  1.9467035560e+00  3.3298250045e+31  5.4434782605e+28
  1.9524179500e+00  3.3869235576e+31  5.5803376158e+28
  1.9581323440e+00  3.4422986705e+31  5.7218568222e+28
  1.9638467380e+00  3.4957476683e+31  5.8680491991e+28
  1.9695611320e+00  3.5470709911e+31  6.0188996528e+28
  1.9752755260e+00  3.5960742164e+31  6.1743669685e+28
  1.9809899200e+00  3.6425701162e+31  6.3343877778e+28
  1.9867043140e+00  3.6863807097e+31  6.4988815226e+28
  1.9924187080e+00  3.7273392707e+31  6.6677555795e+28
  1.9981331020e+00  3.7652922462e+31  6.8409096895e+28
  2.0038474960e+00  3.8001010426e+31  7.0182389646e+28
  2.0095618900e+00  3.8316436389e+31  7.1996349998e+28
  2.0152762840e+00  3.8598159878e+31  7.3849849662e+28
  2.0209906780e+00  3.8845331724e+31  7.5741689352e+28
  2.0267050720e+00  3.9057302906e+31  7.7670560351e+28
  2.0324194660e+00  3.9233630483e+31  7.9635002910e+28
  2.0381338600e+00  3.9374080496e+31  8.1633371153e+28
  2.0438482540e+00  3.9478627817e+31  8.3663813621e+28
  2.0495626480e+00  3.9547453000e+31  8.5724276484e+28
  2.0552770420e+00  3.9580936275e+31  8.7812532925e+28
  2.0609914360e+00  3.9579648896e+31  8.9926238011e+28
  2.0667058300e+00  3.9544342117e+31  9.2063003954e+28
  2.0724202240e+00  3.9475934118e+31  9.4220487020e+28
  2.0781346180e+00  3.9375495229e+31  9.6396474886e+28
  2.0838490120e+00  3.9244231829e+31  9.8588962646e+28
  2.0895634060e+00  3.9083469297e+31  1.0079620691e+29
  2.0952778000e+00  3.8894634388e+31  1.0301675059e+29
  2.1009921940e+00  3.8679237378e+31  1.0524941523e+29
  2.1067065880e+00  3.8438854315e+31  1.0749326314e+29
  2.1124209820e+00  3.8175109665e+31  1.0974753597e+29
  2.1181353760e+00  3.7889659621e+31  1.1201158085e+29
  2.1238497700e+00  3.7584176294e+31  1.1428477686e+29
  2.1295641640e+00  3.7260332967e+31  1.1656647509e+29
  2.1352785580e+00  3.6919790577e+31  1.1885596320e+29
  2.1409929520e+00  3.6564185506e+31  1.2115246139e+29
  2.1467073460e+00  3.6195118780e+31  1.2345515154e+29
  2.1524217400e+00  3.5814146693e+31  1.2576323524e+29
  2.1581361340e+00  3.5422772862e+31  1.2807601152e+29
  2.1638505280e+00  3.5022441693e+31  1.3039296103e+29
  2.1695649220e+00  3.4614533180e+31  1.3271382186e+29
  2.1752793160e+00  3.4200358981e+31  1.3503864299e+29
  2.1809937100e+00  3.3781159646e+31  1.3736780455e+29
  2.1867081040e+00  3.3358102894e+31  1.3970199910e+29
  2.1924224980e+00  3.2932282821e+31  1.4204217482e+29
  2.1981368920e+00  3.2504719905e+31  1.4438944748e+29
  2.2038512860e+00  3.2076361693e+31  1.4674499397e+29
  2.2095656800e+00  3.1648084057e+31  1.4910994345e+29
  2.2152800740e+00  3.1220692923e+31  1.5148528323e+29
  2.2209944680e+00  3.0794926377e+31  1.5387179470e+29
  2.2267088620e+00  3.0371457082e+31  1.5627003002e+29
  2.2324232560e+00  2.9950894945e+31  1.5868033382e+29
  2.2381376500e+00  2.9533789976e+31  1.6110290692e+29
  2.2438520440e+00  2.9120635305e+31  1.6353790188e+29
  2.2495664380e+00  2.8711870308e+31  1.6598553443e+29
  2.2552808320e+00  2.8307883816e+31  1.6844619203e+29
  2.2609952260e+00  2.7909017357e+31  1.7092052038e+29
  2.2667096200e+00  2.7515568400e+31  1.7340947217e+29
  2.2724240140e+00  2.7127793561e+31  1.7591430795e+29
  2.2781384080e+00  2.6745911727e+31  1.7843654718e+29
  2.2838528020e+00  2.6370107067e+31  1.8097787546e+29
  2.2895671960e+00  2.6000531899e+31  1.8354002191e+29
  2.2952815900e+00  2.5637309388e+31  1.8612462609e+29
  2.3009959840e+00  2.5280536058e+31  1.8873311609e+29
  2.3067103780e+00  2.4930284129e+31  1.9136661867e+29
  2.3124247720e+00  2.4586603669e+31  1.9402591722e+29
  2.3181391660e+00  2.4249524587e+31  1.9671146603e+29
  2.3238535600e+00  2.3919058481e+31  1.9942346019e+29
  2.3295679540e+00  2.3595200371e+31  2.0216195101e+29
  2.3352823480e+00  2.3277930331e+31  2.0492698881e+29
  2.3409967420e+00  2.2967215039e+31  2.0771876994e+29
  2.3467111360e+00  2.2663009264e+31  2.1053776349e+29
  2.3524255300e+00  2.2365257276e+31  2.1338479545e+29
  2.3581399240e+00  2.2073894192e+31  2.1626107507e+29
  2.3638543180e+00  2.1788847233e+31  2.1916815708e+29
  2.3695687120e+00  2.1510036891e+31  2.2210784415e+29
  2.3752831060e+00  2.1237377976e+31  2.2508204427e+29
  2.3809975000e+00  2.0970780551e+31  2.2809260561e+29
  2.3867118940e+00  2.0710150734e+31  2.3114115615e+29
  2.3924262880e+00  2.0455391380e+31  2.3422897525e+29
  2.3981406820e+00  2.0206402640e+31  2.3735691992e+29
  2.4038550760e+00  1.9963082441e+31  2.4052542002e+29
  2.4095694700e+00  1.9725326876e+31  2.4373454533e+29
  2.4152838640e+00  1.9493030563e+31  2.4698413570e+29
  2.4209982580e+00  1.9266086972e+31  2.5027397428e+29
  2.4267126520e+00  1.9044388756e+31  2.5360397611e+29
  2.4324270460e+00  1.8827828091e+31  2.5697436082e+29
  2.4381414400e+00  1.8616297028e+31  2.6038578001e+29
  2.4438558340e+00  1.8409687860e+31  2.6383937642e+29
  2.4495702280e+00  1.8207893484e+31  2.6733676294e+29
  2.4552846220e+00  1.8010807738e+31  2.7087992257e+29
  2.4609990160e+00  1.7818325700e+31  2.7447104384e+29
  2.4667134100e+00  1.7630343937e+31  2.7811231761e+29
  2.4724278040e+00  1.7446760669e+31  2.8180572826e+29
  2.4781421980e+00  1.7267475871e+31  2.8555287459e+29
  2.4838565920e+00  1.7092391298e+31  2.8935485163e+29
  2.4895709860e+00  1.6921410456e+31  2.9321221528e+29
  2.4952853800e+00  1.6754438539e+31  2.9712503847e+29
  2.5009997740e+00  1.6591382343e+31  3.0109305235e+29
  2.5067141680e+00  1.6432150203e+31  3.0511585143e+29
  2.5124285620e+00  1.6276651950e+31  3.0919313015e+29
  2.5181429560e+00  1.6124798924e+31  3.1332491205e+29
  2.5238573500e+00  1.5976504024e+31  3.1751173271e+29
  2.5295717440e+00  1.5831681812e+31  3.2175474418e+29
  2.5352861380e+00  1.5690248647e+31  3.2605572102e+29
  2.5410005320e+00  1.5552122818e+31  3.3041696374e+29
  2.5467149260e+00  1.5417224682e+31  3.3484111304e+29
  2.5524293200e+00  1.5285476747e+31  3.3933090329e+29
  2.5581437140e+00  1.5156803724e+31  3.4388889526e+29
  2.5638581080e+00  1.5031132497e+31  3.4851723256e+29
  2.5695725020e+00  1.4908392042e+31  3.5321746391e+29
  2.5752868960e+00  1.4788513294e+31  3.5799046333e+29
  2.5810012900e+00  1.4671428978e+31  3.6283646510e+29
  2.5867156840e+00  1.4557073429e+31  3.6775521120e+29
  2.5924300780e+00  1.4445382430e+31  3.7274619010e+29
  2.5981444720e+00  1.4336293087e+31  3.7780892952e+29
  2.6038588660e+00  1.4229743761e+31  3.8294329552e+29
  2.6095732600e+00  1.4125674059e+31  3.8814974772e+29
  2.6152876540e+00  1.4024024883e+31  3.9342950616e+29
  2.6210020480e+00  1.3924738529e+31  3.9878459890e+29
  2.6267164420e+00  1.3827758806e+31  4.0421777873e+29
  2.6324308360e+00  1.3733031156e+31  4.0973231872e+29
  2.6381452300e+00  1.3640502742e+31  4.1533171776e+29
  2.6438596240e+00  1.3550122497e+31  4.2101936276e+29
  2.6495740180e+00  1.3461841103e+31  4.2679820363e+29
  2.6552884120e+00  1.3375610907e+31  4.3267049639e+29
  2.6610028060e+00  1.3291385778e+31  4.3863766026e+29
  2.6667172000e+00  1.3209120925e+31  4.4470027670e+29
  2.6724315940e+00  1.3128772703e+31  4.5085823525e+29
  2.6781459880e+00  1.3050298421e+31  4.5711100660e+29
  2.6838603820e+00  1.2973656200e+31  4.6345800068e+29
  2.6895747760e+00  1.2898804880e+31  4.6989895240e+29
  2.6952891700e+00  1.2825703999e+31  4.7643427063e+29
  2.7010035640e+00  1.2754313842e+31  4.8306529047e+29
  2.7067179580e+00  1.2684595546e+31  4.8979438303e+29
  2.7124323520e+00  1.2616511232e+31  4.9662489965e+29
  2.7181467460e+00  1.2550024158e+31  5.0356095477e+29
  2.7238611400e+00  1.2485098832e+31  5.1060707904e+29
  2.7295755340e+00  1.2421701095e+31  5.1776779727e+29
  2.7352899280e+00  1.2359798125e+31  5.2504720025e+29
  2.7410043220e+00  1.2299358374e+31  5.3244858316e+29
  2.7467187160e+00  1.2240351437e+31  5.3997421378e+29
  2.7524331100e+00  1.2182747871e+31  5.4762527461e+29
  2.7581475040e+00  1.2126518989e+31  5.5540199440e+29
  2.7638618980e+00  1.2071636662e+31  5.6330395348e+29
  2.7695762920e+00  1.2018073149e+31  5.7133051716e+29
  2.7752906860e+00  1.1965801002e+31  5.7948132832e+29
  2.7810050800e+00  1.1914793029e+31  5.8775677801e+29
  2.7867194740e+00  1.1865022350e+31  5.9615837381e+29
  2.7924338680e+00  1.1816462510e+31  6.0468894054e+29
  2.7981482620e+00  1.1769087636e+31  6.1335261366e+29
  2.8038626560e+00  1.1722872622e+31  6.2215462000e+29
  2.8095770500e+00  1.1677793280e+31  6.3110087586e+29
  2.8152914440e+00  1.1633826451e+31  6.4019746466e+29
  2.8210058380e+00  1.1590950050e+31  6.4945007883e+29
  2.8267202320e+00  1.1549143019e+31  6.5886351943e+29
  2.8324346260e+00  1.1508385211e+31  6.6844134064e+29
  2.8381490200e+00  1.1468657205e+31  6.7818570448e+29
  2.8438634140e+00  1.1429940093e+31  6.8809747788e+29
  2.8495778080e+00  1.1392215256e+31  6.9817656430e+29
  2.8552922020e+00  1.1355464181e+31  7.0842242216e+29
  2.8610065960e+00  1.1319668337e+31  7.1883468881e+29
  2.8667209900e+00  1.1284809135e+31  7.2941380858e+29
  2.8724353840e+00  1.1250867973e+31  7.4016155876e+29
  2.8781497780e+00  1.1217826364e+31  7.5108138139e+29
  2.8838641720e+00  1.1185666122e+31  7.6217845810e+29
  2.8895785660e+00  1.1154369563e+31  7.7345950696e+29
  2.8952929600e+00  1.1123919712e+31  7.8493232629e+29
  2.9010073540e+00  1.1094300444e+31  7.9660515442e+29
  2.9067217480e+00  1.1065496558e+31  8.0848594783e+29
  2.9124361420e+00  1.1037493762e+31  8.2058169765e+29
  2.9181505360e+00  1.1010278562e+31  8.3289790205e+29
  2.9238649300e+00  1.0983838070e+31  8.4543829005e+29
  2.9295793240e+00  1.0958159778e+31  8.5820485290e+29
  2.9352937180e+00  1.0933231305e+31  8.7119818898e+29
  2.9410081120e+00  1.0909040187e+31  8.8441811570e+29
  2.9467225060e+00  1.0885573721e+31  8.9786445439e+29
  2.9524369000e+00  1.0862818909e+31  9.1153786201e+29
  2.9581512940e+00  1.0840762495e+31  9.2544057100e+29
  2.9638656880e+00  1.0819391101e+31  9.3957690884e+29
  2.9695800820e+00  1.0798691431e+31  9.5395350226e+29
  2.9752944760e+00  1.0778650519e+31  9.6857912045e+29
  2.9810088700e+00  1.0759255964e+31  9.8346417167e+29
  2.9867232640e+00  1.0740496122e+31  9.9861992655e+29
  2.9924376580e+00  1.0722360215e+31  1.0140575907e+30
  2.9981520520e+00  1.0704838341e+31  1.0297873793e+30
  3.0038664460e+00  1.0687921369e+31  1.0458177506e+30
  3.0095808400e+00  1.0671600744e+31  1.0621549365e+30
  3.0152952340e+00  1.0655868234e+31  1.0788028598e+30
