#  Energy (ev)    Absorption NP      Absorption MG
  9.5239900000e-01  5.0548991069e+14  4.1898823196e+13
  9.5811339400e-01  5.0709659082e+14  4.2242308550e+13
  9.6382778800e-01  5.0867867989e+14  4.2589168630e+13
  9.6954218200e-01  5.1023549943e+14  4.2939398005e+13
  9.7525657600e-01  5.1176559488e+14  4.3292833759e+13
  9.8097097000e-01  5.1326696671e+14  4.3649193271e+13
  9.8668536400e-01  5.1473739905e+14  4.4008133692e+13
  9.9239975800e-01  5.1617483052e+14  4.4369323187e+13
  9.9811415200e-01  5.1757770355e+14  4.4732511741e+13
  1.0038285460e+00  5.1894523084e+14  4.5097589225e+13
  1.0095429400e+00  5.2027753125e+14  4.5464620394e+13
  1.0152573340e+00  5.2157560898e+14  4.5833850319e+13
  1.0209717280e+00  5.2284117667e+14  4.6205678795e+13
  1.0266861220e+00  5.2407635026e+14  4.6580607607e+13
  1.0324005160e+00  5.2528326616e+14  4.6959169342e+13
  1.0381149100e+00  5.2646368580e+14  4.7341849786e+13
  1.0438293040e+00  5.2761865577e+14  4.7729017298e+13
  1.0495436980e+00  5.2874828387e+14  4.8120871553e+13
  1.0552580920e+00  5.2985167175e+14  4.8517420953e+13
  1.0609724860e+00  5.3092701906e+14  4.8918493154e+13
  1.0666868800e+00  5.3197188398e+14  4.9323777512e+13
  1.0724012740e+00  5.3298355804e+14  4.9732892690e+13
  1.0781156680e+00  5.3395949216e+14  5.0145468137e+13
  1.0838300620e+00  5.3489770096e+14  5.0561225577e+13
  1.0895444560e+00  5.3579707466e+14  5.0980046329e+13
  1.0952588500e+00  5.3665754259e+14  5.1402012511e+13
  1.1009732440e+00  5.3748005694e+14  5.1827414460e+13
  1.1066876380e+00  5.3826639606e+14  5.2256722425e+13
  1.1124020320e+00  5.3901881768e+14  5.2690526774e+13
  1.1181164260e+00  5.3973961925e+14  5.3129456463e+13
  1.1238308200e+00  5.4043067974e+14  5.3574089545e+13
  1.1295452140e+00  5.4109306183e+14  5.4024871088e+13
  1.1352596080e+00  5.4172674483e+14  5.4482052940e+13
  1.1409740020e+00  5.4233053698e+14  5.4945666254e+13
  1.1466883960e+00  5.4290218605e+14  5.5415532225e+13
  1.1524027900e+00  5.4343867303e+14  5.5891309962e+13
  1.1581171840e+00  5.4393664160e+14  5.6372573962e+13
  1.1638315780e+00  5.4439289168e+14  5.6858908339e+13
  1.1695459720e+00  5.4480485277e+14  5.7350001800e+13
  1.1752603660e+00  5.4517095439e+14  5.7845726899e+13
  1.1809747600e+00  5.4549082731e+14  5.8346189454e+13
  1.1866891540e+00  5.4576529696e+14  5.8851738932e+13
  1.1924035480e+00  5.4599616565e+14  5.9362937167e+13
  1.1981179420e+00  5.4618581678e+14  5.9880489945e+13
  1.2038323360e+00  5.4633670579e+14  6.0405152573e+13
  1.2095467300e+00  5.4645082347e+14  6.0937625267e+13
  1.2152611240e+00  5.4652922404e+14  6.1478456350e+13
  1.2209755180e+00  5.4657170114e+14  6.2027970269e+13
  1.2266899120e+00  5.4657667096e+14  6.2586233530e+13
  1.2324043060e+00  5.4654128745e+14  6.3153065344e+13
  1.2381187000e+00  5.4646177456e+14  6.3728092192e+13
  1.2438330940e+00  5.4633392278e+14  6.4310837837e+13
  1.2495474880e+00  5.4615366756e+14  6.4900833998e+13
  1.2552618820e+00  5.4591765117e+14  6.5497732940e+13
  1.2609762760e+00  5.4562367010e+14  6.6101402483e+13
  1.2666906700e+00  5.4527092777e+14  6.6711986516e+13
  1.2724050640e+00  5.4486004428e+14  6.7329919709e+13
  1.2781194580e+00  5.4439281565e+14  6.7955892800e+13
  1.2838338520e+00  5.4387175853e+14  6.8590773329e+13
  1.2895482460e+00  5.4329951409e+14  6.9235494598e+13
  1.2952626400e+00  5.4267821111e+14  6.9890931430e+13
  1.3009770340e+00  5.4200889776e+14  7.0557784100e+13
  1.3066914280e+00  5.4129114220e+14  7.1236490927e+13
  1.3124058220e+00  5.4052287546e+14  7.1927185553e+13
  1.3181202160e+00  5.3970050982e+14  7.2629707591e+13
  1.3238346100e+00  5.3881931910e+14  7.3343666263e+13
  1.3295490040e+00  5.3787402144e+14  7.4068547460e+13
  1.3352633980e+00  5.3685946889e+14  7.4803846824e+13
  1.3409777920e+00  5.3577132684e+14  7.5549206517e+13
  1.3466921860e+00  5.3460662559e+14  7.6304532082e+13
  1.3524065800e+00  5.3336408523e+14  7.7070068663e+13
  1.3581209740e+00  5.3204415180e+14  7.7846422384e+13
  1.3638353680e+00  5.3064873150e+14  7.8634521852e+13
  1.3695497620e+00  5.2918066123e+14  7.9435525064e+13
  1.3752641560e+00  5.2764300115e+14  8.0250686698e+13
  1.3809785500e+00  5.2603826766e+14  8.1081208098e+13
  1.3866929440e+00  5.2436773918e+14  8.1928095986e+13
  1.3924073380e+00  5.2263095800e+14  8.2792055180e+13
  1.3981217320e+00  5.2082552115e+14  8.3673435461e+13
  1.4038361260e+00  5.1894720558e+14  8.4572243933e+13
  1.4095505200e+00  5.1699041665e+14  8.5488223176e+13
  1.4152649140e+00  5.1494889242e+14  8.6420984087e+13
  1.4209793080e+00  5.1281655031e+14  8.7370172460e+13
  1.4266937020e+00  5.1058833480e+14  8.8335641905e+13
  1.4324080960e+00  5.0826092078e+14  8.9317603782e+13
  1.4381224900e+00  5.0583314833e+14  9.0316728014e+13
  1.4438368840e+00  5.0330610778e+14  9.1334176454e+13
  1.4495512780e+00  5.0068285273e+14  9.2371561789e+13
  1.4552656720e+00  4.9796778301e+14  9.3430837838e+13
  1.4609800660e+00  4.9516579857e+14  9.4514139433e+13
  1.4666944600e+00  4.9228136896e+14  9.5623599632e+13
  1.4724088540e+00  4.8931768261e+14  9.6761177064e+13
  1.4781232480e+00  4.8627603225e+14  9.7928525739e+13
  1.4838376420e+00  4.8315555737e+14  9.9126933513e+13
  1.4895520360e+00  4.7995340725e+14  1.0035734450e+14
  1.4952664300e+00  4.7666531762e+14  1.0162046675e+14
  1.5009808240e+00  4.7328652298e+14  1.0291695190e+14
  1.5066952180e+00  4.6981286623e+14  1.0424762048e+14
  1.5124096120e+00  4.6624192951e+14  1.0561369820e+14
  1.5181240060e+00  4.6257400151e+14  1.0701702507e+14
  1.5238384000e+00  4.5881272014e+14  1.0846020352e+14
  1.5295527940e+00  4.5496528178e+14  1.0994666101e+14
  1.5352671880e+00  4.5104218217e+14  1.1148061727e+14
  1.5409815820e+00  4.4705653630e+14  1.1306696348e+14
  1.5466959760e+00  4.4302310244e+14  1.1471107660e+14
  1.5524103700e+00  4.3895719428e+14  1.1641860556e+14
  1.5581247640e+00  4.3487369455e+14  1.1819527284e+14
  1.5638391580e+00  4.3078637721e+14  1.2004673511e+14
  1.5695535520e+00  4.2670770242e+14  1.2197853880e+14
  1.5752679460e+00  4.2264917619e+14  1.2399619220e+14
  1.5809823400e+00  4.1862227522e+14  1.2610535706e+14
  1.5866967340e+00  4.1463984265e+14  1.2831214267e+14
  1.5924111280e+00  4.1071777864e+14  1.3062346785e+14
  1.5981255220e+00  4.0687679576e+14  1.3304744370e+14
  1.6038399160e+00  4.0314399350e+14  1.3559372560e+14
  1.6095543100e+00  3.9955403393e+14  1.3827378772e+14
  1.6152687040e+00  3.9614976772e+14  1.4110108614e+14
  1.6209830980e+00  3.9298225779e+14  1.4409109715e+14
  1.6266974920e+00  3.9011026009e+14  1.4726124092e+14
  1.6324118860e+00  3.8759932860e+14  1.5063072385e+14
  1.6381262800e+00  3.8552079584e+14  1.5422035188e+14
  1.6438406740e+00  3.8395092470e+14  1.5805237761e+14
  1.6495550680e+00  3.8297052176e+14  1.6215044408e+14
  1.6552694620e+00  3.8266524577e+14  1.6653967695e+14
  1.6609838560e+00  3.8312674333e+14  1.7124695567e+14
  1.6666982500e+00  3.8445461306e+14  1.7630136643e+14
  1.6724126440e+00  3.8675906022e+14  1.8173480874e+14
  1.6781270380e+00  3.9016397958e+14  1.8758270035e+14
  1.6838414320e+00  3.9481011769e+14  1.9388470458e+14
  1.6895558260e+00  4.0085793286e+14  2.0068539602e+14
  1.6952702200e+00  4.0848980068e+14  2.0803478533e+14
  1.7009846140e+00  4.1791130202e+14  2.1598864242e+14
  1.7066990080e+00  4.2935146467e+14  2.2460858588e+14
  1.7124134020e+00  4.4306198703e+14  2.3396194090e+14
  1.7181277960e+00  4.5931562181e+14  2.4412140083e+14
  1.7238421900e+00  4.7840401016e+14  2.5516455259e+14
  1.7295565840e+00  5.0063530334e+14  2.6717333663e+14
  1.7352709780e+00  5.2633187422e+14  2.8023350410e+14
  1.7409853720e+00  5.5582829774e+14  2.9443410570e+14
  1.7466997660e+00  5.8946958031e+14  3.0986700086e+14
  1.7524141600e+00  6.2760936880e+14  3.2662631777e+14
  1.7581285540e+00  6.7060760860e+14  3.4480773424e+14
  1.7638429480e+00  7.1882689565e+14  3.6450739643e+14
  1.7695573420e+00  7.7262662661e+14  3.8582025951e+14
  1.7752717360e+00  8.3235403733e+14  4.0883763137e+14
  1.7809861300e+00  8.9833136061e+14  4.3364373479e+14
  1.7867005240e+00  9.7083863968e+14  4.6031117783e+14
  1.7924149180e+00  1.0500921889e+15  4.8889533374e+14
  1.7981293120e+00  1.1362192611e+15  5.1942777195e+14
  1.8038437060e+00  1.2292301006e+15  5.5190903610e+14
  1.8095581000e+00  1.3289891641e+15  5.8630121624e+14
  1.8152724940e+00  1.4351877861e+15  6.2252089007e+14
  1.8209868880e+00  1.5473208936e+15  6.6043309299e+14
  1.8267012820e+00  1.6646704554e+15  6.9984700264e+14
  1.8324156760e+00  1.7862981564e+15  7.4051397999e+14
  1.8381300700e+00  1.9110493128e+15  7.8212849263e+14
  1.8438444640e+00  2.0375693019e+15  8.2433226189e+14
  1.8495588580e+00  2.1643328435e+15  8.6672173779e+14
  1.8552732520e+00  2.2896854138e+15  9.0885873523e+14
  1.8609876460e+00  2.4118950068e+15  9.5028378785e+14
  1.8667020400e+00  2.5292114938e+15  9.9053152096e+14
  1.8724164340e+00  2.6399300652e+15  1.0291471399e+15
  1.8781308280e+00  2.7424547724e+15  1.0657029979e+15
  1.8838452220e+00  2.8353580590e+15  1.0998141656e+15
  1.8895596160e+00  2.9174324173e+15  1.1311519764e+15
  1.8952740100e+00  2.9877308931e+15  1.1594546713e+15
  1.9009884040e+00  3.0455940495e+15  1.1845344904e+15
  1.9067027980e+00  3.0906620779e+15  1.2062808419e+15
  1.9124171920e+00  3.1228719283e+15  1.2246594944e+15
  1.9181315860e+00  3.1424404771e+15  1.2397080433e+15
  1.9238459800e+00  3.1498357647e+15  1.2515281821e+15
  1.9295603740e+00  3.1457391146e+15  1.2602755240e+15
  1.9352747680e+00  3.1310014207e+15  1.2661478571e+15
  1.9409891620e+00  3.1065970349e+15  1.2693727644e+15
  1.9467035560e+00  3.0735785031e+15  1.2701955011e+15
  1.9524179500e+00  3.0330349310e+15  1.2688678987e+15
  1.9581323440e+00  2.9860560740e+15  1.2656388888e+15
  1.9638467380e+00  2.9337034396e+15  1.2607470202e+15
  1.9695611320e+00  2.8769888522e+15  1.2544151154e+15
  1.9752755260e+00  2.8168601594e+15  1.2468470003e+15
  1.9809899200e+00  2.7541931353e+15  1.2382260666e+15
  1.9867043140e+00  2.6897882116e+15  1.2287153020e+15
  1.9924187080e+00  2.6243704698e+15  1.2184583598e+15
  1.9981331020e+00  2.5585913593e+15  1.2075812393e+15
  2.0038474960e+00  2.4930308287e+15  1.1961941915e+15
  2.0095618900e+00  2.4281989297e+15  1.1843935521e+15
  2.0152762840e+00  2.3645364005e+15  1.1722633080e+15
  2.0209906780e+00  2.3024141995e+15  1.1598763086e+15
  2.0267050720e+00  2.2421323675e+15  1.1472951245e+15
  2.0324194660e+00  2.1839189034e+15  1.1345726212e+15
  2.0381338600e+00  2.1279295069e+15  1.1217523468e+15
  2.0438482540e+00  2.0742490586e+15  1.1088688316e+15
  2.0495626480e+00  2.0228955811e+15  1.0959478681e+15
  2.0552770420e+00  1.9738271834e+15  1.0830067953e+15
  2.0609914360e+00  1.9269521615e+15  1.0700547598e+15
  2.0667058300e+00  1.8821420677e+15  1.0570928870e+15
  2.0724202240e+00  1.8392472083e+15  1.0441142726e+15
  2.0781346180e+00  1.7981137234e+15  1.0311037114e+15
  2.0838490120e+00  1.7586011811e+15  1.0180371148e+15
  2.0895634060e+00  1.7205994958e+15  1.0048806297e+15
  2.0952778000e+00  1.6840439655e+15  9.9158954436e+14
  2.1009921940e+00  1.6489273147e+15  9.7810715426e+14
  2.1067065880e+00  1.6153078102e+15  9.6436382475e+14
  2.1124209820e+00  1.5833127665e+15  9.5027653948e+14
  2.1181353760e+00  1.5531370600e+15  9.3574923224e+14
  2.1238497700e+00  1.5250365884e+15  9.2067416994e+14
  2.1295641640e+00  1.4993169387e+15  9.0493458086e+14
  2.1352785580e+00  1.4763178271e+15  8.8840861024e+14
  2.1409929520e+00  1.4563941468e+15  8.7097454662e+14
  2.1467073460e+00  1.4398946791e+15  8.5251711256e+14
  2.1524217400e+00  1.4271396890e+15  8.3293446909e+14
  2.1581361340e+00  1.4183987261e+15  8.1214546486e+14
  2.1638505280e+00  1.4138699754e+15  7.9009658206e+14
  2.1695649220e+00  1.4136624572e+15  7.6676800547e+14
  2.1752793160e+00  1.4177822427e+15  7.4217827223e+14
  2.1809937100e+00  1.4261236495e+15  7.1638704879e+14
  2.1867081040e+00  1.4384661018e+15  6.8949571853e+14
  2.1924224980e+00  1.4544770056e+15  6.6164563616e+14
  2.1981368920e+00  1.4737206117e+15  6.3301409529e+14
  2.2038512860e+00  1.4956724435e+15  6.0380824333e+14
  2.2095656800e+00  1.5197384891e+15  5.7425734399e+14
  2.2152800740e+00  1.5452780137e+15  5.4460391605e+14
  2.2209944680e+00  1.5716285905e+15  5.1509435420e+14
  2.2267088620e+00  1.5981317820e+15  4.8596965894e+14
  2.2324232560e+00  1.6241578669e+15  4.5745686663e+14
  2.2381376500e+00  1.6491280915e+15  4.2976168465e+14
  2.2438520440e+00  1.6725331392e+15  4.0306271129e+14
  2.2495664380e+00  1.6939468334e+15  3.7750747006e+14
  2.2552808320e+00  1.7130344841e+15  3.5321033069e+14
  2.2609952260e+00  1.7295557335e+15  3.3025223950e+14
  2.2667096200e+00  1.7433621878e+15  3.0868205396e+14
  2.2724240140e+00  1.7543905193e+15  2.8851918177e+14
  2.2781384080e+00  1.7626520282e+15  2.6975716722e+14
  2.2838528020e+00  1.7682198515e+15  2.5236785033e+14
  2.2895671960e+00  1.7712150760e+15  2.3630574245e+14
  2.2952815900e+00  1.7717929528e+15  2.2151230942e+14
  2.3009959840e+00  1.7701302410e+15  2.0791992109e+14
  2.3067103780e+00  1.7664144456e+15  1.9545530293e+14
  2.3124247720e+00  1.7608354090e+15  1.8404240293e+14
  2.3181391660e+00  1.7535793888e+15  1.7360465572e+14
  2.3238535600e+00  1.7448254677e+15  1.6406668072e+14
  2.3295679540e+00  1.7347439021e+15  1.5535548822e+14
  2.3352823480e+00  1.7234958715e+15  1.4740128671e+14
  2.3409967420e+00  1.7112340331e+15  1.4013798793e+14
  2.3467111360e+00  1.6981033229e+15  1.3350349697e+14
  2.3524255300e+00  1.6842415526e+15  1.2743985765e+14
  2.3581399240e+00  1.6697795159e+15  1.2189330293e+14
  2.3638543180e+00  1.6548404994e+15  1.1681424072e+14
  2.3695687120e+00  1.6395392666e+15  1.1215718955e+14
  2.3752831060e+00  1.6239807222e+15  1.0788066842e+14
  2.3809975000e+00  1.6082585467e+15  1.0394704075e+14
  2.3867118940e+00  1.5924541123e+15  1.0032231266e+14
  2.3924262880e+00  1.5766359479e+15  9.6975889857e+13
  2.3981406820e+00  1.5608599299e+15  9.3880302308e+13
  2.4038550760e+00  1.5451702515e+15  9.1010910634e+13
  2.4095694700e+00  1.5296010918e+15  8.8345610720e+13
  2.4152838640e+00  1.5141787896e+15  8.5864552929e+13
  2.4209982580e+00  1.4989242440e+15  8.3549889407e+13
  2.4267126520e+00  1.4838552309e+15  8.1385557889e+13
  2.4324270460e+00  1.4689883412e+15  7.9357104238e+13
  2.4381414400e+00  1.4543403133e+15  7.7451539928e+13
  2.4438558340e+00  1.4399286335e+15  7.5657225983e+13
  2.4495702280e+00  1.4257713980e+15  7.3963772306e+13
  2.4552846220e+00  1.4118865464e+15  7.2361941320e+13
  2.4609990160e+00  1.3982906751e+15  7.0843547149e+13
  2.4667134100e+00  1.3849976949e+15  6.9401345574e+13
  2.4724278040e+00  1.3720176134e+15  6.8028914862e+13
  2.4781421980e+00  1.3593556887e+15  6.6720532054e+13
  2.4838565920e+00  1.3470121278e+15  6.5471052637e+13
  2.4895709860e+00  1.3349824044e+15  6.4275802873e+13
  2.4952853800e+00  1.3232581608e+15  6.3130493364e+13
  2.5009997740e+00  1.3118285583e+15  6.2031159624e+13
  2.5067141680e+00  1.3006818657e+15  6.0974131342e+13
  2.5124285620e+00  1.2898070357e+15  5.9956027366e+13
  2.5181429560e+00  1.2791950258e+15  5.8973769177e+13
  2.5238573500e+00  1.2688396643e+15  5.8024602679e+13
  2.5295717440e+00  1.2587379393e+15  5.7106117076e+13
  2.5352861380e+00  1.2488896884e+15  5.6216250631e+13
  2.5410005320e+00  1.2392967627e+15  5.5353276108e+13
  2.5467149260e+00  1.2299618253e+15  5.4515763049e+13
  2.5524293200e+00  1.2208870032e+15  5.3702518969e+13
  2.5581437140e+00  1.2120726259e+15  5.2912516097e+13
  2.5638581080e+00  1.2035162717e+15  5.2144813604e+13
  2.5695725020e+00  1.1952122788e+15  5.1398486689e+13
  2.5752868960e+00  1.1871518040e+15  5.0672573212e+13
  2.5810012900e+00  1.1793234126e+15  4.9966045773e+13
  2.5867156840e+00  1.1717140976e+15  4.9277812867e+13
  2.5924300780e+00  1.1643105534e+15  4.8606747688e+13
  2.5981444720e+00  1.1571004896e+15  4.7951738256e+13
  2.6038588660e+00  1.1500737657e+15  4.7311748740e+13
  2.6095732600e+00  1.1432231627e+15  4.6685879785e+13
  2.6152876540e+00  1.1365446666e+15  4.6073415809e+13
  2.6210020480e+00  1.1300372260e+15  4.5473849509e+13
  2.6267164420e+00  1.1237020325e+15  4.4886877889e+13
  2.6324308360e+00  1.1175414509e+15  4.4312369246e+13
  2.6381452300e+00  1.1115577845e+15  4.3750305818e+13
  2.6438596240e+00  1.1057520853e+15  4.3200711282e+13
  2.6495740180e+00  1.1001232075e+15  4.2663575121e+13
  2.6552884120e+00  1.0946672610e+15  4.2138786704e+13
  2.6610028060e+00  1.0893775517e+15  4.1626090305e+13
  2.6667172000e+00  1.0842450119e+15  4.1125068843e+13
  2.6724315940e+00  1.0792590440e+15  4.0635159126e+13
  2.6781459880e+00  1.0744086307e+15  4.0155695921e+13
  2.6838603820e+00  1.0696835211e+15  3.9685977141e+13
  2.6895747760e+00  1.0650752955e+15  3.9225338678e+13
  2.6952891700e+00  1.0605781277e+15  3.8773225661e+13
  2.7010035640e+00  1.0561891234e+15  3.8329247496e+13
  2.7067179580e+00  1.0519081796e+15  3.7893206745e+13
  2.7124323520e+00  1.0477373945e+15  3.7465096484e+13
  2.7181467460e+00  1.0436801301e+15  3.7045066168e+13
  2.7238611400e+00  1.0397398894e+15  3.6633361607e+13
  2.7295755340e+00  1.0359191954e+15  3.6230249126e+13
  2.7352899280e+00  1.0322186620e+15  3.5835936853e+13
  2.7410043220e+00  1.0286364091e+15  3.5450506644e+13
  2.7467187160e+00  1.0251679160e+15  3.5073868378e+13
  2.7524331100e+00  1.0218063344e+15  3.4705744596e+13
  2.7581475040e+00  1.0185432033e+15  3.4345688223e+13
  2.7638618980e+00  1.0153694415e+15  3.3993130440e+13
  2.7695762920e+00  1.0122764497e+15  3.3647450556e+13
  2.7752906860e+00  1.0092571340e+15  3.3308055915e+13
  2.7810050800e+00  1.0063066821e+15  3.2974458086e+13
  2.7867194740e+00  1.0034229611e+15  3.2646332173e+13
  2.7924338680e+00  1.0006064747e+15  3.2323548964e+13
  2.7981482620e+00  9.9785988895e+14  3.2006174229e+13
  2.8038626560e+00  9.9518721039e+14  3.1694435143e+13
  2.8095770500e+00  9.9259275560e+14  3.1388659444e+13
  2.8152914440e+00  9.9008008712e+14  3.1089197633e+13
  2.8210058380e+00  9.8765109372e+14  3.0796341465e+13
  2.8267202320e+00  9.8530536817e+14  3.0510252688e+13
  2.8324346260e+00  9.8303998423e+14  3.0230914221e+13
  2.8381490200e+00  9.8084970731e+14  2.9958112209e+13
  2.8438634140e+00  9.7872760000e+14  2.9691452097e+13
  2.8495778080e+00  9.7666591792e+14  2.9430406065e+13
  2.8552922020e+00  9.7465714345e+14  2.9174383796e+13
  2.8610065960e+00  9.7269498259e+14  2.8922814538e+13
  2.8667209900e+00  9.7077515787e+14  2.8675226464e+13
  2.8724353840e+00  9.6889586524e+14  2.8431309763e+13
  2.8781497780e+00  9.6705782025e+14  2.8190952638e+13
  2.8838641720e+00  9.6526388807e+14  2.7954244006e+13
  2.8895785660e+00  9.6351836181e+14  2.7721442336e+13
  2.8952929600e+00  9.6182601196e+14  2.7492915870e+13
  2.9010073540e+00  9.6019106785e+14  2.7269064333e+13
  2.9067217480e+00  9.5861630192e+14  2.7050235434e+13
  2.9124361420e+00  9.5710236983e+14  2.6836650369e+13
  2.9181505360e+00  9.5564751547e+14  2.6628351020e+13
  2.9238649300e+00  9.5424768819e+14  2.6425177877e+13
  2.9295793240e+00  9.5289705006e+14  2.6226782509e+13
  2.9352937180e+00  9.5158878594e+14  2.6032672504e+13
  2.9410081120e+00  9.5031607864e+14  2.5842281299e+13
  2.9467225060e+00  9.4907308452e+14  2.5655051047e+13
  2.9524369000e+00  9.4785574566e+14  2.5470514470e+13
  2.9581512940e+00  9.4666230305e+14  2.5288361736e+13
  2.9638656880e+00  9.4549342593e+14  2.5108481001e+13
  2.9695800820e+00  9.4435193724e+14  2.4930965639e+13
  2.9752944760e+00  9.4324218316e+14  2.4756086900e+13
  2.9810088700e+00  9.4216915381e+14  2.4584236559e+13
  2.9867232640e+00  9.4113750378e+14  2.4415849253e+13
  2.9924376580e+00  9.4015063726e+14  2.4251317664e+13
  2.9981520520e+00  9.3921001062e+14  2.4090914918e+13
  3.0038664460e+00  9.3831476875e+14  2.3934737390e+13
  3.0095808400e+00  9.3746177446e+14  2.3782677650e+13
  3.0152952340e+00  9.3664602437e+14  2.3634432171e+13
