#  Energy (ev)    Absorption NP      Absorption MG
  9.5239900000e-01  2.9935091546e+14  3.9395090617e+13
  9.5811339400e-01  3.0007190645e+14  3.9801644634e+13
  9.6382778800e-01  3.0077466187e+14  4.0212757734e+13
  9.6954218200e-01  3.0145933371e+14  4.0628546389e+13
  9.7525657600e-01  3.0212607644e+14  4.1049129939e+13
  9.8097097000e-01  3.0277504713e+14  4.1474630686e+13
  9.8668536400e-01  3.0340640562e+14  4.1905174001e+13
  9.9239975800e-01  3.0402031463e+14  4.2340888428e+13
  9.9811415200e-01  3.0461693993e+14  4.2781905788e+13
  1.0038285460e+00  3.0519645048e+14  4.3228361297e+13
  1.0095429400e+00  3.0575901860e+14  4.3680393674e+13
  1.0152573340e+00  3.0630482009e+14  4.4138145258e+13
  1.0209717280e+00  3.0683403445e+14  4.4601762125e+13
  1.0266861220e+00  3.0734684504e+14  4.5071394210e+13
  1.0324005160e+00  3.0784343932e+14  4.5547195434e+13
  1.0381149100e+00  3.0832400910e+14  4.6029323836e+13
  1.0438293040e+00  3.0878875077e+14  4.6517941715e+13
  1.0495436980e+00  3.0923786561e+14  4.7013215773e+13
  1.0552580920e+00  3.0967156010e+14  4.7515317279e+13
  1.0609724860e+00  3.1009004621e+14  4.8024422229e+13
  1.0666868800e+00  3.1049354176e+14  4.8540711520e+13
  1.0724012740e+00  3.1088227071e+14  4.9064371132e+13
  1.0781156680e+00  3.1125646354e+14  4.9595592319e+13
  1.0838300620e+00  3.1161635755e+14  5.0134571796e+13
  1.0895444560e+00  3.1196219722e+14  5.0681511946e+13
  1.0952588500e+00  3.1229423455e+14  5.1236621021e+13
  1.1009732440e+00  3.1261272948e+14  5.1800113353e+13
  1.1066876380e+00  3.1291795019e+14  5.2372209572e+13
  1.1124020320e+00  3.1321017360e+14  5.2953136832e+13
  1.1181164260e+00  3.1348968579e+14  5.3543129042e+13
  1.1238308200e+00  3.1375678246e+14  5.4142427117e+13
  1.1295452140e+00  3.1401176948e+14  5.4751279231e+13
  1.1352596080e+00  3.1425496343e+14  5.5369941089e+13
  1.1409740020e+00  3.1448669216e+14  5.5998676214e+13
  1.1466883960e+00  3.1470729543e+14  5.6637756248e+13
  1.1524027900e+00  3.1491712550e+14  5.7287461263e+13
  1.1581171840e+00  3.1511654779e+14  5.7948080094e+13
  1.1638315780e+00  3.1530594154e+14  5.8619910675e+13
  1.1695459720e+00  3.1548570046e+14  5.9303260401e+13
  1.1752603660e+00  3.1565623343e+14  5.9998446485e+13
  1.1809747600e+00  3.1581796522e+14  6.0705796343e+13
  1.1866891540e+00  3.1597133719e+14  6.1425647982e+13
  1.1924035480e+00  3.1611680810e+14  6.2158350409e+13
  1.1981179420e+00  3.1625485493e+14  6.2904264044e+13
  1.2038323360e+00  3.1638597370e+14  6.3663761169e+13
  1.2095467300e+00  3.1651068043e+14  6.4437226380e+13
  1.2152611240e+00  3.1662951209e+14  6.5225057068e+13
  1.2209755180e+00  3.1674302764e+14  6.6027663931e+13
  1.2266899120e+00  3.1685180910e+14  6.6845471494e+13
  1.2324043060e+00  3.1695646268e+14  6.7678918674e+13
  1.2381187000e+00  3.1705761996e+14  6.8528459354e+13
  1.2438330940e+00  3.1715593907e+14  6.9394562997e+13
  1.2495474880e+00  3.1725210594e+14  7.0277715272e+13
  1.2552618820e+00  3.1734683563e+14  7.1178418717e+13
  1.2609762760e+00  3.1744087359e+14  7.2097193417e+13
  1.2666906700e+00  3.1753499705e+14  7.3034577714e+13
  1.2724050640e+00  3.1763001646e+14  7.3991128938e+13
  1.2781194580e+00  3.1772677696e+14  7.4967424170e+13
  1.2838338520e+00  3.1782615994e+14  7.5964061036e+13
  1.2895482460e+00  3.1792908467e+14  7.6981658530e+13
  1.2952626400e+00  3.1803651007e+14  7.8020857883e+13
  1.3009770340e+00  3.1814943646e+14  7.9082323458e+13
  1.3066914280e+00  3.1826890754e+14  8.0166743703e+13
  1.3124058220e+00  3.1839601234e+14  8.1274832135e+13
  1.3181202160e+00  3.1853188735e+14  8.2407328376e+13
  1.3238346100e+00  3.1867771865e+14  8.3564999234e+13
  1.3295490040e+00  3.1883474421e+14  8.4748639831e+13
  1.3352633980e+00  3.1900425619e+14  8.5959074772e+13
  1.3409777920e+00  3.1918760334e+14  8.7197159370e+13
  1.3466921860e+00  3.1938619352e+14  8.8463780903e+13
  1.3524065800e+00  3.1960149624e+14  8.9759859935e+13
  1.3581209740e+00  3.1983504538e+14  9.1086351669e+13
  1.3638353680e+00  3.2008844194e+14  9.2444247366e+13
  1.3695497620e+00  3.2036335693e+14  9.3834575810e+13
  1.3752641560e+00  3.2066153449e+14  9.5258404834e+13
  1.3809785500e+00  3.2098479498e+14  9.6716842907e+13
  1.3866929440e+00  3.2133503835e+14  9.8211040789e+13
  1.3924073380e+00  3.2171424760e+14  9.9742193253e+13
  1.3981217320e+00  3.2212449241e+14  1.0131154087e+14
  1.4038361260e+00  3.2256793293e+14  1.0292037190e+14
  1.4095505200e+00  3.2304682361e+14  1.0457002418e+14
  1.4152649140e+00  3.2356351730e+14  1.0626188719e+14
  1.4209793080e+00  3.2412046941e+14  1.0799740408e+14
  1.4266937020e+00  3.2472024216e+14  1.0977807384e+14
  1.4324080960e+00  3.2536550901e+14  1.1160545353e+14
  1.4381224900e+00  3.2605905924e+14  1.1348116054e+14
  1.4438368840e+00  3.2680380263e+14  1.1540687495e+14
  1.4495512780e+00  3.2760277425e+14  1.1738434192e+14
  1.4552656720e+00  3.2845913953e+14  1.1941537423e+14
  1.4609800660e+00  3.2937619939e+14  1.2150185480e+14
  1.4666944600e+00  3.3035739558e+14  1.2364573931e+14
  1.4724088540e+00  3.3140631617e+14  1.2584905894e+14
  1.4781232480e+00  3.3252670127e+14  1.2811392306e+14
  1.4838376420e+00  3.3372244880e+14  1.3044252215e+14
  1.4895520360e+00  3.3499762051e+14  1.3283713060e+14
  1.4952664300e+00  3.3635644802e+14  1.3530010971e+14
  1.5009808240e+00  3.3780333903e+14  1.3783391064e+14
  1.5066952180e+00  3.3934288359e+14  1.4044107742e+14
  1.5124096120e+00  3.4097986037e+14  1.4312424998e+14
  1.5181240060e+00  3.4271924305e+14  1.4588616714e+14
  1.5238384000e+00  3.4456620664e+14  1.4872966967e+14
  1.5295527940e+00  3.4652613382e+14  1.5165770319e+14
  1.5352671880e+00  3.4860462129e+14  1.5467332116e+14
  1.5409815820e+00  3.5080748595e+14  1.5777968767e+14
  1.5466959760e+00  3.5314077116e+14  1.6098008022e+14
  1.5524103700e+00  3.5561075270e+14  1.6427789234e+14
  1.5581247640e+00  3.5822394467e+14  1.6767663606e+14
  1.5638391580e+00  3.6098710510e+14  1.7117994419e+14
  1.5695535520e+00  3.6390724130e+14  1.7479157239e+14
  1.5752679460e+00  3.6699161473e+14  1.7851540091e+14
  1.5809823400e+00  3.7024774541e+14  1.8235543607e+14
  1.5866967340e+00  3.7368341578e+14  1.8631581125e+14
  1.5924111280e+00  3.7730667369e+14  1.9040078747e+14
  1.5981255220e+00  3.8112583469e+14  1.9461475342e+14
  1.6038399160e+00  3.8514948313e+14  1.9896222483e+14
  1.6095543100e+00  3.8938647230e+14  2.0344784309e+14
  1.6152687040e+00  3.9384592310e+14  2.0807637313e+14
  1.6209830980e+00  3.9853722130e+14  2.1285270024e+14
  1.6266974920e+00  4.0347001315e+14  2.1778182593e+14
  1.6324118860e+00  4.0865419900e+14  2.2286886254e+14
  1.6381262800e+00  4.1409992492e+14  2.2811902650e+14
  1.6438406740e+00  4.1981757190e+14  2.3353763022e+14
  1.6495550680e+00  4.2581774237e+14  2.3913007214e+14
  1.6552694620e+00  4.3211124381e+14  2.4490182508e+14
  1.6609838560e+00  4.3870906900e+14  2.5085842251e+14
  1.6666982500e+00  4.4562237262e+14  2.5700544252e+14
  1.6724126440e+00  4.5286244382e+14  2.6334848932e+14
  1.6781270380e+00  4.6044067426e+14  2.6989317209e+14
  1.6838414320e+00  4.6836852127e+14  2.7664508071e+14
  1.6895558260e+00  4.7665746573e+14  2.8360975840e+14
  1.6952702200e+00  4.8531896415e+14  2.9079267072e+14
  1.7009846140e+00  4.9436439455e+14  2.9819917091e+14
  1.7066990080e+00  5.0380499572e+14  3.0583446110e+14
  1.7124134020e+00  5.1365179941e+14  3.1370354933e+14
  1.7181277960e+00  5.2391555512e+14  3.2181120189e+14
  1.7238421900e+00  5.3460664694e+14  3.3016189106e+14
  1.7295565840e+00  5.4573500231e+14  3.3875973769e+14
  1.7352709780e+00  5.5730999227e+14  3.4760844876e+14
  1.7409853720e+00  5.6934032298e+14  3.5671124964e+14
  1.7466997660e+00  5.8183391847e+14  3.6607081097e+14
  1.7524141600e+00  5.9479779446e+14  3.7568917022e+14
  1.7581285540e+00  6.0823792354e+14  3.8556764798e+14
  1.7638429480e+00  6.2215909184e+14  3.9570675919e+14
  1.7695573420e+00  6.3656474782e+14  4.0610611965e+14
  1.7752717360e+00  6.5145684391e+14  4.1676434818e+14
  1.7809861300e+00  6.6683567201e+14  4.2767896516e+14
  1.7867005240e+00  6.8269969415e+14  4.3884628825e+14
  1.7924149180e+00  6.9904537011e+14  4.5026132620e+14
  1.7981293120e+00  7.1586698387e+14  4.6191767207e+14
  1.8038437060e+00  7.3315647149e+14  4.7380739735e+14
  1.8095581000e+00  7.5090325298e+14  4.8592094854e+14
  1.8152724940e+00  7.6909407167e+14  4.9824704825e+14
  1.8209868880e+00  7.8771284430e+14  5.1077260293e+14
  1.8267012820e+00  8.0674052606e+14  5.2348261962e+14
  1.8324156760e+00  8.2615499465e+14  5.3636013427e+14
  1.8381300700e+00  8.4593095792e+14  5.4938615443e+14
  1.8438444640e+00  8.6603988976e+14  5.6253961910e+14
  1.8495588580e+00  8.8644999912e+14  5.7579737867e+14
  1.8552732520e+00  9.0712623673e+14  5.8913419778e+14
  1.8609876460e+00  9.2803034416e+14  6.0252278391e+14
  1.8667020400e+00  9.4912094945e+14  6.1593384415e+14
  1.8724164340e+00  9.7035371281e+14  6.2933617239e+14
  1.8781308280e+00  9.9168152543e+14  6.4269676869e+14
  1.8838452220e+00  1.0130547632e+15  6.5598099192e+14
  1.8895596160e+00  1.0344215961e+15  6.6915274613e+14
  1.8952740100e+00  1.0557283528e+15  6.8217470032e+14
  1.9009884040e+00  1.0769199384e+15  6.9500854030e+14
  1.9067027980e+00  1.0979403014e+15  7.0761525044e+14
  1.9124171920e+00  1.1187329446e+15  7.1995542203e+14
  1.9181315860e+00  1.1392414733e+15  7.3198958391e+14
  1.9238459800e+00  1.1594101717e+15  7.4367855044e+14
  1.9295603740e+00  1.1791845986e+15  7.5498378040e+14
  1.9352747680e+00  1.1985121894e+15  7.6586774039e+14
  1.9409891620e+00  1.2173428547e+15  7.7629426524e+14
  1.9467035560e+00  1.2356295623e+15  7.8622890799e+14
  1.9524179500e+00  1.2533288893e+15  7.9563927178e+14
  1.9581323440e+00  1.2704015343e+15  8.0449531636e+14
  1.9638467380e+00  1.2868127772e+15  8.1276963228e+14
  1.9695611320e+00  1.3025328777e+15  8.2043767671e+14
  1.9752755260e+00  1.3175374040e+15  8.2747796593e+14
  1.9809899200e+00  1.3318074864e+15  8.3387222045e+14
  1.9867043140e+00  1.3453299914e+15  8.3960546036e+14
  1.9924187080e+00  1.3580976155e+15  8.4466604993e+14
  1.9981331020e+00  1.3701089000e+15  8.4904569168e+14
  2.0038474960e+00  1.3813681695e+15  8.5273937192e+14
  2.0095618900e+00  1.3918854001e+15  8.5574526098e+14
  2.0152762840e+00  1.4016760250e+15  8.5806457221e+14
  2.0209906780e+00  1.4107606861e+15  8.5970138537e+14
  2.0267050720e+00  1.4191649413e+15  8.6066244027e+14
  2.0324194660e+00  1.4269189386e+15  8.6095690706e+14
  2.0381338600e+00  1.4340570669e+15  8.6059614012e+14
  2.0438482540e+00  1.4406175951e+15  8.5959342186e+14
  2.0495626480e+00  1.4466423076e+15  8.5796370299e+14
  2.0552770420e+00  1.4521761462e+15  8.5572334487e+14
  2.0609914360e+00  1.4572668635e+15  8.5288986930e+14
  2.0667058300e+00  1.4619646964e+15  8.4948171987e+14
  2.0724202240e+00  1.4663220608e+15  8.4551803854e+14
  2.0781346180e+00  1.4703932707e+15  8.4101846000e+14
  2.0838490120e+00  1.4742342837e+15  8.3600292551e+14
  2.0895634060e+00  1.4779024690e+15  8.3049151717e+14
  2.0952778000e+00  1.4814563989e+15  8.2450431291e+14
  2.1009921940e+00  1.4849556587e+15  8.1806126159e+14
  2.1067065880e+00  1.4884606705e+15  8.1118207747e+14
  2.1124209820e+00  1.4920325284e+15  8.0388615265e+14
  2.1181353760e+00  1.4957328377e+15  7.9619248598e+14
  2.1238497700e+00  1.4996235549e+15  7.8811962676e+14
  2.1295641640e+00  1.5037668227e+15  7.7968563150e+14
  2.1352785580e+00  1.5082247961e+15  7.7090803220e+14
  2.1409929520e+00  1.5130594548e+15  7.6180381456e+14
  2.1467073460e+00  1.5183323992e+15  7.5238940477e+14
  2.1524217400e+00  1.5241046271e+15  7.4268066396e+14
  2.1581361340e+00  1.5304362876e+15  7.3269288918e+14
  2.1638505280e+00  1.5373864125e+15  7.2244082055e+14
  2.1695649220e+00  1.5450126227e+15  7.1193865379e+14
  2.1752793160e+00  1.5533708098e+15  7.0120005825e+14
  2.1809937100e+00  1.5625147928e+15  6.9023820002e+14
  2.1867081040e+00  1.5724959514e+15  6.7906577022e+14
  2.1924224980e+00  1.5833628349e+15  6.6769501860e+14
  2.1981368920e+00  1.5951607515e+15  6.5613779229e+14
  2.2038512860e+00  1.6079313369e+15  6.4440557991e+14
  2.2095656800e+00  1.6217121075e+15  6.3250956096e+14
  2.2152800740e+00  1.6365359988e+15  6.2046066019e+14
  2.2209944680e+00  1.6524308961e+15  6.0826960685e+14
  2.2267088620e+00  1.6694191579e+15  5.9594699829e+14
  2.2324232560e+00  1.6875171407e+15  5.8350336723e+14
  2.2381376500e+00  1.7067347286e+15  5.7094925204e+14
  2.2438520440e+00  1.7270748765e+15  5.5829526887e+14
  2.2495664380e+00  1.7485331717e+15  5.4555218460e+14
  2.2552808320e+00  1.7710974254e+15  5.3273098924e+14
  2.2609952260e+00  1.7947473008e+15  5.1984296621e+14
  2.2667096200e+00  1.8194539892e+15  5.0689975904e+14
  2.2724240140e+00  1.8451799436e+15  4.9391343257e+14
  2.2781384080e+00  1.8718786819e+15  4.8089652704e+14
  2.2838528020e+00  1.8994946698e+15  4.6786210321e+14
  2.2895671960e+00  1.9279632941e+15  4.5482377666e+14
  2.2952815900e+00  1.9572109390e+15  4.4179573967e+14
  2.3009959840e+00  1.9871551713e+15  4.2879276916e+14
  2.3067103780e+00  2.0177050459e+15  4.1583021921e+14
  2.3124247720e+00  2.0487615360e+15  4.0292399718e+14
  2.3181391660e+00  2.0802180916e+15  3.9009052275e+14
  2.3238535600e+00  2.1119613280e+15  3.7734666942e+14
  2.3295679540e+00  2.1438718424e+15  3.6470968864e+14
  2.3352823480e+00  2.1758251510e+15  3.5219711711e+14
  2.3409967420e+00  2.2076927398e+15  3.3982666847e+14
  2.3467111360e+00  2.2393432140e+15  3.2761611074e+14
  2.3524255300e+00  2.2706435304e+15  3.1558313180e+14
  2.3581399240e+00  2.3014602930e+15  3.0374519537e+14
  2.3638543180e+00  2.3316610892e+15  2.9211939030e+14
  2.3695687120e+00  2.3611158416e+15  2.8072227661e+14
  2.3752831060e+00  2.3896981493e+15  2.6956973142e+14
  2.3809975000e+00  2.4172865929e+15  2.5867679852e+14
  2.3867118940e+00  2.4437659756e+15  2.4805754492e+14
  2.3924262880e+00  2.4690284762e+15  2.3772492769e+14
  2.3981406820e+00  2.4929746899e+15  2.2769067425e+14
  2.4038550760e+00  2.5155145387e+15  2.1796517863e+14
  2.4095694700e+00  2.5365680326e+15  2.0855741603e+14
  2.4152838640e+00  2.5560658710e+15  1.9947487729e+14
  2.4209982580e+00  2.5739498755e+15  1.9072352435e+14
  2.4267126520e+00  2.5901732508e+15  1.8230776720e+14
  2.4324270460e+00  2.6047006752e+15  1.7423046222e+14
  2.4381414400e+00  2.6175082261e+15  1.6649293116e+14
  2.4438558340e+00  2.6285831500e+15  1.5909499968e+14
  2.4495702280e+00  2.6379234896e+15  1.5203505379e+14
  2.4552846220e+00  2.6455375844e+15  1.4531011209e+14
  2.4609990160e+00  2.6514434616e+15  1.3891591174e+14
  2.4667134100e+00  2.6556681366e+15  1.3284700557e+14
  2.4724278040e+00  2.6582468430e+15  1.2709686789e+14
  2.4781421980e+00  2.6592222114e+15  1.2165800649e+14
  2.4838565920e+00  2.6586434164e+15  1.1652207837e+14
  2.4895709860e+00  2.6565653081e+15  1.1168000690e+14
  2.4952853800e+00  2.6530475469e+15  1.0712209838e+14
  2.5009997740e+00  2.6481537537e+15  1.0283815610e+14
  2.5067141680e+00  2.6419506890e+15  9.8817590225e+13
  2.5124285620e+00  2.6345074712e+15  9.5049522386e+13
  2.5181429560e+00  2.6258948423e+15  9.1522883650e+13
  2.5238573500e+00  2.6161844874e+15  8.8226505296e+13
  2.5295717440e+00  2.6054484109e+15  8.5149201717e+13
  2.5352861380e+00  2.5937583756e+15  8.2279845192e+13
  2.5410005320e+00  2.5811854007e+15  7.9607432374e+13
  2.5467149260e+00  2.5677993238e+15  7.7121142561e+13
  2.5524293200e+00  2.5536684209e+15  7.4810387956e+13
  2.5581437140e+00  2.5388590857e+15  7.2664856217e+13
  2.5638581080e+00  2.5234355626e+15  7.0674545728e+13
  2.5695725020e+00  2.5074597318e+15  6.8829794059e+13
  2.5752868960e+00  2.4909909412e+15  6.7121300146e+13
  2.5810012900e+00  2.4740858815e+15  6.5540140749e+13
  2.5867156840e+00  2.4567985002e+15  6.4077781745e+13
  2.5924300780e+00  2.4391799508e+15  6.2726084825e+13
  2.5981444720e+00  2.4212785712e+15  6.1477310140e+13
  2.6038588660e+00  2.4031398897e+15  6.0324115427e+13
  2.6095732600e+00  2.3848066529e+15  5.9259552100e+13
  2.6152876540e+00  2.3663188735e+15  5.8277058785e+13
  2.6210020480e+00  2.3477138930e+15  5.7370452709e+13
  2.6267164420e+00  2.3290264585e+15  5.6533919353e+13
  2.6324308360e+00  2.3102888090e+15  5.5762000696e+13
  2.6381452300e+00  2.2915307702e+15  5.5049582391e+13
  2.6438596240e+00  2.2727798551e+15  5.4391880138e+13
  2.6495740180e+00  2.2540613691e+15  5.3784425496e+13
  2.6552884120e+00  2.2353985169e+15  5.3223051362e+13
  2.6610028060e+00  2.2168125115e+15  5.2703877292e+13
  2.6667172000e+00  2.1983226826e+15  5.2223294813e+13
  2.6724315940e+00  2.1799465845e+15  5.1777952876e+13
  2.6781459880e+00  2.1617001015e+15  5.1364743537e+13
  2.6838603820e+00  2.1435975517e+15  5.0980787968e+13
  2.6895747760e+00  2.1256517868e+15  5.0623422859e+13
  2.6952891700e+00  2.1078742891e+15  5.0290187265e+13
  2.7010035640e+00  2.0902752643e+15  4.9978809951e+13
  2.7067179580e+00  2.0728637306e+15  4.9687197232e+13
  2.7124323520e+00  2.0556476030e+15  4.9413421372e+13
  2.7181467460e+00  2.0386337745e+15  4.9155709503e+13
  2.7238611400e+00  2.0218281918e+15  4.8912433112e+13
  2.7295755340e+00  2.0052359283e+15  4.8682098069e+13
  2.7352899280e+00  1.9888612514e+15  4.8463335196e+13
  2.7410043220e+00  1.9727076877e+15  4.8254891375e+13
  2.7467187160e+00  1.9567780825e+15  4.8055621172e+13
  2.7524331100e+00  1.9410746571e+15  4.7864478974e+13
  2.7581475040e+00  1.9255990619e+15  4.7680511607e+13
  2.7638618980e+00  1.9103524255e+15  4.7502851426e+13
  2.7695762920e+00  1.8953354015e+15  4.7330709857e+13
  2.7752906860e+00  1.8805482112e+15  4.7163371358e+13
  2.7810050800e+00  1.8659906836e+15  4.7000187783e+13
  2.7867194740e+00  1.8516622927e+15  4.6840573133e+13
  2.7924338680e+00  1.8375621915e+15  4.6683998658e+13
  2.7981482620e+00  1.8236892435e+15  4.6529988296e+13
  2.8038626560e+00  1.8100420526e+15  4.6378114436e+13
  2.8095770500e+00  1.7966189894e+15  4.6227993968e+13
  2.8152914440e+00  1.7834182166e+15  4.6079284626e+13
  2.8210058380e+00  1.7704377120e+15  4.5931681585e+13
  2.8267202320e+00  1.7576752898e+15  4.5784914318e+13
  2.8324346260e+00  1.7451286198e+15  4.5638743676e+13
  2.8381490200e+00  1.7327952463e+15  4.5492959203e+13
  2.8438634140e+00  1.7206726041e+15  4.5347376642e+13
  2.8495778080e+00  1.7087580342e+15  4.5201835649e+13
  2.8552922020e+00  1.6970487975e+15  4.5056197676e+13
  2.8610065960e+00  1.6855420879e+15  4.4910344019e+13
  2.8667209900e+00  1.6742350439e+15  4.4764174024e+13
  2.8724353840e+00  1.6631247589e+15  4.4617603425e+13
  2.8781497780e+00  1.6522082913e+15  4.4470562816e+13
  2.8838641720e+00  1.6414826723e+15  4.4322996234e+13
  2.8895785660e+00  1.6309449146e+15  4.4174859853e+13
  2.8952929600e+00  1.6205920188e+15  4.4026120780e+13
  2.9010073540e+00  1.6104209802e+15  4.3876755944e+13
  2.9067217480e+00  1.6004287943e+15  4.3726751071e+13
  2.9124361420e+00  1.5906124624e+15  4.3576099751e+13
  2.9181505360e+00  1.5809689962e+15  4.3424802575e+13
  2.9238649300e+00  1.5714954222e+15  4.3272866352e+13
  2.9295793240e+00  1.5621887856e+15  4.3120303401e+13
  2.9352937180e+00  1.5530461543e+15  4.2967130896e+13
  2.9410081120e+00  1.5440646214e+15  4.2813370281e+13
  2.9467225060e+00  1.5352413085e+15  4.2659046733e+13
  2.9524369000e+00  1.5265733681e+15  4.2504188677e+13
  2.9581512940e+00  1.5180579855e+15  4.2348827337e+13
  2.9638656880e+00  1.5096923806e+15  4.2192996328e+13
  2.9695800820e+00  1.5014738094e+15  4.2036731280e+13
  2.9752944760e+00  1.4933995652e+15  4.1880069491e+13
  2.9810088700e+00  1.4854669797e+15  4.1723049611e+13
  2.9867232640e+00  1.4776734237e+15  4.1565711347e+13
  2.9924376580e+00  1.4700163077e+15  4.1408095196e+13
  2.9981520520e+00  1.4624930827e+15  4.1250242211e+13
  3.0038664460e+00  1.4551012406e+15  4.1092193779e+13
  3.0095808400e+00  1.4478383145e+15  4.0933991436e+13
  3.0152952340e+00  1.4407018795e+15  4.0775676699e+13
