#  Energy (ev)    Absorption NP      Absorption MG
  9.5239900000e-01  1.0129766873e+30  3.1127640396e+28
  9.5811339400e-01  8.2100576076e+29  2.7638773610e+28
  9.6382778800e-01  6.6171762846e+29  2.2187787409e+28
  9.6954218200e-01  5.6739984076e+29  1.5704370768e+28
  9.7525657600e-01  5.6093076978e+29  9.3531883872e+27
  9.8097097000e-01  6.5136471231e+29  4.3436691903e+27
  9.8668536400e-01  8.3166173659e+29  1.7213872860e+27
  9.9239975800e-01  1.0790639240e+30  2.1764802290e+27
  9.9811415200e-01  1.3581902474e+30  5.9035189734e+27
  1.0038285460e+00  1.6264582910e+30  1.2540139485e+28
  1.0095429400e+00  1.8410205589e+30  2.1199480919e+28
  1.0152573340e+00  1.9661009373e+30  3.0595914668e+28
  1.0209717280e+00  1.9794910917e+30  3.9247233738e+28
  1.0266861220e+00  1.8770478608e+30  4.5722212121e+28
  1.0324005160e+00  1.6743175812e+30  4.8892839583e+28
  1.0381149100e+00  1.4048629912e+30  4.8147514942e+28
  1.0438293040e+00  1.1154138164e+30  4.3525920624e+28
  1.0495436980e+00  8.5851423194e+29  3.5747828078e+28
  1.0552580920e+00  6.8380443516e+29  2.6125066450e+28
  1.0609724860e+00  6.2936524172e+29  1.6365656880e+28
  1.0666868800e+00  7.1461514896e+29  8.2983759485e+27
  1.0724012740e+00  9.3605673542e+29  3.5613822889e+27
  1.0781156680e+00  1.2667441456e+30  3.3071372185e+27
  1.0838300620e+00  1.6597473372e+30  7.9758174563e+27
  1.0895444560e+00  2.0552158125e+30  1.7180303527e+28
  1.0952588500e+00  2.3900066661e+30  2.9728735321e+28
  1.1009732440e+00  2.6083503663e+30  4.3788105999e+28
  1.1066876380e+00  2.6717744607e+30  5.7168044254e+28
  1.1124020320e+00  2.5665455614e+30  6.7681943691e+28
  1.1181164260e+00  2.3072309968e+30  7.3526879793e+28
  1.1238308200e+00  1.9355794882e+30  7.3617370135e+28
  1.1295452140e+00  1.5146848948e+30  6.7812582946e+28
  1.1352596080e+00  1.1192051672e+30  5.6991869771e+28
  1.1409740020e+00  8.2312342188e+29  4.2957405842e+28
  1.1466883960e+00  6.8703215141e+29  2.8171575409e+28
  1.1524027900e+00  7.4709944561e+29  1.5365796865e+28
  1.1581171840e+00  1.0076918482e+30  7.0817183370e+27
  1.1638315780e+00  1.4390962670e+30  5.2206754553e+27
  1.1695459720e+00  1.9809777935e+30  1.0679909433e+28
  1.1752603660e+00  2.5512565391e+30  2.3143193836e+28
  1.1809747600e+00  3.0591412918e+30  4.1070382300e+28
  1.1866891540e+00  3.4202836685e+30  6.1898324164e+28
  1.1924035480e+00  3.5715546191e+30  8.2429677993e+28
  1.1981179420e+00  3.4828899140e+30  9.9352393618e+28
  1.2038323360e+00  3.1640316193e+30  1.0980698254e+29
  1.2095467300e+00  2.6647641281e+30  1.1190601572e+29
  1.2152611240e+00  2.0682923982e+30  1.0511345198e+29
  1.2209755180e+00  1.4785698856e+30  9.0410698976e+28
  1.2266899120e+00  1.0034605215e+30  7.0209259873e+28
  1.2324043060e+00  7.3642418019e+29  4.8011454985e+28
  1.2381187000e+00  7.3979727691e+29  2.7864300152e+28
  1.2438330940e+00  1.0326135854e+30  1.3689753853e+28
  1.2495474880e+00  1.5852724498e+30  8.6003458196e+27
  1.2552618820e+00  2.3222972488e+30  1.4317568088e+28
  1.2609762760e+00  3.1330984286e+30  3.0798977546e+28
  1.2666906700e+00  3.8892779168e+30  5.6149646329e+28
  1.2724050640e+00  4.4658192053e+30  8.6848622732e+28
  1.2781194580e+00  4.7627132685e+30  1.1826839813e+29
  1.2838338520e+00  4.7233300636e+30  1.4541367530e+29
  1.2895482460e+00  4.3462264494e+30  1.6376395369e+29
  1.2952626400e+00  3.6880484174e+30  1.7008030900e+29
  1.3009770340e+00  2.8566008743e+30  1.6303534595e+29
  1.3066914280e+00  1.9948006685e+30  1.4354810306e+29
  1.3124058220e+00  1.2578274059e+30  1.1475006535e+29
  1.3181202160e+00  7.8706557858e+29  8.1567923976e+28
  1.3238346100e+00  6.8515589689e+29  4.9973902203e+28
  1.3295490040e+00  9.9649248425e+29  2.6014449771e+28
  1.3352633980e+00  1.6967784024e+30  1.4772308825e+28
  1.3409777920e+00  2.6938730032e+30  1.9436927332e+28
  1.3466921860e+00  3.8403354866e+30  4.0649196197e+28
  1.3524065800e+00  4.9560814833e+30  7.6248482671e+28
  1.3581209740e+00  5.8577564967e+30  1.2148786518e+29
  1.3638353680e+00  6.3901109414e+30  1.6970667553e+29
  1.3695497620e+00  6.4540865757e+30  2.1337028713e+29
  1.3752641560e+00  6.0266283723e+30  2.4531899538e+29
  1.3809785500e+00  5.1684103253e+30  2.6002309774e+29
  1.3866929440e+00  4.0175499033e+30  2.5462885160e+29
  1.3924073380e+00  2.7696956524e+30  2.2960378269e+29
  1.3981217320e+00  1.6472309197e+30  1.8884777212e+29
  1.4038361260e+00  8.6234199336e+29  1.3922044368e+29
  1.4095505200e+00  5.7998989217e+29  8.9532673332e+28
  1.4152649140e+00  8.8714467730e+29  4.9144642040e+28
  1.4209793080e+00  1.7738860682e+30  2.6388421324e+28
  1.4266937020e+00  3.1302197301e+30  2.7075627345e+28
  1.4324080960e+00  4.7599550998e+30  5.3351067251e+28
  1.4381224900e+00  6.4101291163e+30  1.0310907660e+29
  1.4438368840e+00  7.8117128555e+30  1.7010542682e+29
  1.4495512780e+00  8.7251813866e+30  2.4478632021e+29
  1.4552656720e+00  8.9833609254e+30  3.1573451913e+29
  1.4609800660e+00  8.5240422705e+30  3.7152121986e+29
  1.4666944600e+00  7.4062168028e+30  4.0267046776e+29
  1.4724088540e+00  5.8062837722e+30  4.0340638027e+29
  1.4781232480e+00  3.9938268343e+30  3.7287105582e+29
  1.4838376420e+00  2.2900468454e+30  3.1557295448e+29
  1.4895520360e+00  1.0150817871e+30  2.4094267208e+29
  1.4952664300e+00  4.3268665387e+29  1.6201810795e+29
  1.5009808240e+00  7.0165435429e+29  9.3431006829e+28
  1.5066952180e+00  1.8427063674e+30  4.8996513084e+28
  1.5124096120e+00  3.7273969966e+30  3.9293453048e+28
  1.5181240060e+00  6.0921489027e+30  6.9648321731e+28
  1.5238384000e+00  8.5763893519e+30  1.3889245054e+29
  1.5295527940e+00  1.0779556976e+31  2.3915281275e+29
  1.5352671880e+00  1.2328213842e+31  3.5677692095e+29
  1.5409815820e+00  1.2942269086e+31  4.7430533130e+29
  1.5466959760e+00  1.2488852396e+31  5.7322145209e+29
  1.5524103700e+00  1.1013846994e+31  6.3705901317e+29
  1.5581247640e+00  8.7443602483e+30  6.5436012321e+29
  1.5638391580e+00  6.0600185844e+30  6.2096997691e+29
  1.5695535520e+00  3.4362105535e+30  5.4123416425e+29
  1.5752679460e+00  1.3674083780e+30  4.2782310635e+29
  1.5809823400e+00  2.8260463493e+29  3.0012354742e+29
  1.5866967340e+00  4.6697480593e+29  1.8137646764e+29
  1.5924111280e+00  2.0036555239e+30  9.4965337988e+28
  1.5981255220e+00  4.7469136232e+30  6.0429450043e+28
  1.6038399160e+00  8.3332754660e+30  8.9861835442e+28
  1.6095543100e+00  1.2231066455e+31  1.8533016241e+29
  1.6152687040e+00  1.5822235508e+31  3.3782860635e+29
  1.6209830980e+00  1.8504402651e+31  5.2804381948e+29
  1.6266974920e+00  1.9796822318e+31  7.2893037067e+29
  1.6324118860e+00  1.9432230715e+31  9.0978460195e+29
  1.6381262800e+00  1.7417796555e+31  1.0412309993e+30
  1.6438406740e+00  1.4052597904e+31  1.1003401848e+30
  1.6495550680e+00  9.8956789509e+30  1.0750206391e+30
  1.6552694620e+00  5.6868289791e+30  9.6688822375e+29
  1.6609838560e+00  2.2304917194e+30  7.9201765493e+29
  1.6666982500e+00  2.6026296443e+29  5.7929435445e+29
  1.6724126440e+00  3.0598760472e+29  3.6646895824e+29
  1.6781270380e+00  2.5865805741e+30  1.9441093901e+29
  1.6838414320e+00  6.9489430856e+30  1.0039722349e+29
  1.6895558260e+00  1.2866922809e+31  1.1149584433e+29
  1.6952702200e+00  1.9505003046e+31  2.3916794784e+29
  1.7009846140e+00  2.5840666240e+31  4.7609171873e+29
  1.7066990080e+00  3.0828870446e+31  7.9591556354e+29
  1.7124134020e+00  3.3583595376e+31  1.1562114544e+30
  1.7181277960e+00  3.3546538806e+31  1.5043846948e+30
  1.7238421900e+00  3.0612867186e+31  1.7857829575e+30
  1.7295565840e+00  2.5188834223e+31  1.9528203029e+30
  1.7352709780e+00  1.8165645875e+31  1.9736681293e+30
  1.7409853720e+00  1.0806929436e+31  1.8390206543e+30
  1.7466997660e+00  4.5616557259e+30  1.5656418030e+30
  1.7524141600e+00  8.2806627903e+29  1.1958294471e+30
  1.7581285540e+00  7.0472197792e+29  7.9253937638e+29
  1.7638429480e+00  4.7701979116e+30  4.3060978702e+29
  1.7695573420e+00  1.2931871087e+31  1.8521050103e+29
  1.7752717360e+00  2.4376309750e+31  1.1919673160e+29
  1.7809861300e+00  3.7639694595e+31  2.7137401304e+29
  1.7867005240e+00  5.0798263523e+31  6.4770696915e+29
  1.7924149180e+00  6.1758611226e+31  1.2172007464e+30
  1.7981293120e+00  6.8608933708e+31  1.9135717930e+30
  1.8038437060e+00  6.9978166931e+31  2.6429770587e+30
  1.8095581000e+00  6.5343146432e+31  3.2971041000e+30
  1.8152724940e+00  5.5226198111e+31  3.7699840248e+30
  1.8209868880e+00  4.1237458440e+31  3.9761276212e+30
  1.8267012820e+00  2.5936742726e+31  3.8671396723e+30
  1.8324156760e+00  1.2516520635e+31  3.4439362779e+30
  1.8381300700e+00  4.3369233563e+30  2.7621169491e+30
  1.8438444640e+00  4.3713742756e+30  1.9289012793e+30
  1.8495588580e+00  1.4642957502e+31  1.0912336755e+30
  1.8552732520e+00  3.5743108253e+31  4.1603326040e+29
  1.8609876460e+00  6.6522889142e+31  6.4922793309e+28
  1.8667020400e+00  1.0403194279e+32  1.6689910281e+29
  1.8724164340e+00  1.4375208072e+32  7.9311349005e+29
  1.8781308280e+00  1.8013425813e+32  1.9380666064e+30
  1.8838452220e+00  2.0740397963e+32  3.5110144357e+30
  1.8895596160e+00  2.2055674201e+32  5.3402462784e+30
  1.8952740100e+00  2.1642813456e+32  7.1912428091e+30
  1.9009884040e+00  1.9469845505e+32  8.7977487870e+30
  1.9067027980e+00  1.5868366486e+32  9.9027606634e+30
  1.9124171920e+00  1.1577572722e+32  1.0304624248e+31
  1.9181315860e+00  7.7425917849e+31  9.9021423809e+30
  1.9238459800e+00  5.8612022957e+31  8.7320372264e+30
  1.9295603740e+00  7.6789474455e+31  6.9924393493e+30
  1.9352747680e+00  1.5039056291e+32  5.0473155096e+30
  1.9409891620e+00  2.9699699524e+32  3.4088032091e+30
  1.9467035560e+00  5.3136124812e+32  2.6970760118e+30
  1.9524179500e+00  8.6348442610e+32  3.5803051811e+30
  1.9581323440e+00  1.2969676389e+33  6.7001351516e+30
  1.9638467380e+00  1.8278379359e+33  1.2590464929e+31
  1.9695611320e+00  2.4440093449e+33  2.1598876373e+31
  1.9752755260e+00  3.1254784256e+33  3.3820514229e+31
  1.9809899200e+00  3.8452785432e+33  4.9053471562e+31
  1.9867043140e+00  4.5711362876e+33  6.6782790784e+31
  1.9924187080e+00  5.2676965247e+33  8.6197235572e+31
  1.9981331020e+00  5.8991185732e+33  1.0623934417e+32
  2.0038474960e+00  6.4318026679e+33  1.2568536642e+32
  2.0095618900e+00  6.8369884746e+33  1.4324799460e+32
  2.0152762840e+00  7.0929781578e+33  1.5769179286e+32
  2.0209906780e+00  7.1867742052e+33  1.6794931321e+32
  2.0267050720e+00  7.1149824721e+33  1.7322533448e+32
  2.0324194660e+00  6.8839066696e+33  1.7307758646e+32
  2.0381338600e+00  6.5088429482e+33  1.6746465325e+32
  2.0438482540e+00  6.0126628496e+33  1.5675523872e+32
  2.0495626480e+00  5.4238407700e+33  1.4169721932e+32
  2.0552770420e+00  4.7741308681e+33  1.2334940484e+32
  2.0609914360e+00  4.0961232506e+33  1.0298313059e+32
  2.0667058300e+00  3.4209084394e+33  8.1964203478e+31
  2.0724202240e+00  2.7760539033e+33  6.1627900558e+31
  2.0781346180e+00  2.1840509824e+33  4.3160405078e+31
  2.0838490120e+00  1.6613312219e+33  2.7499178410e+31
  2.0895634060e+00  1.2178856548e+33  1.5262420847e+31
  2.0952778000e+00  8.5745687360e+32  6.7142655502e+30
  2.1009921940e+00  5.7821904223e+32  1.7681178354e+30
  2.1067065880e+00  3.7382090400e+32  2.6123049465e+28
  2.1124209820e+00  2.3464472817e+32  8.4866624368e+29
  2.1181353760e+00  1.4913087514e+32  3.4445696945e+30
  2.1238497700e+00  1.0503169108e+32  6.9706398473e+30
  2.1295641640e+00  9.0486172021e+31  1.0628641169e+31
  2.1352785580e+00  9.4843273662e+31  1.3748670937e+31
  2.1409929520e+00  1.0920129020e+32  1.5850118261e+31
  2.1467073460e+00  1.2666799088e+32  1.6674590841e+31
  2.1524217400e+00  1.4237672058e+32  1.6188944190e+31
  2.1581361340e+00  1.5331442816e+32  1.4560352286e+31
  2.1638505280e+00  1.5802730361e+32  1.2108727279e+31
  2.1695649220e+00  1.5626883214e+32  9.2443135027e+30
  2.1752793160e+00  1.4864553709e+32  6.3996584496e+30
  2.1809937100e+00  1.3630043270e+32  3.9652725876e+30
  2.1867081040e+00  1.2065664145e+32  2.2371755017e+30
  2.1924224980e+00  1.0322701809e+32  1.3823940059e+30
  2.1981368920e+00  8.5482585210e+31  1.4256623945e+30
  2.2038512860e+00  6.8764742621e+31  2.2574879427e+30
  2.2095656800e+00  5.4224019385e+31  3.6608172479e+30
  2.2152800740e+00  4.2770929297e+31  5.3511615949e+30
  2.2209944680e+00  3.5030727353e+31  7.0235100203e+30
  2.2267088620e+00  3.1301494784e+31  8.3988446092e+30
  2.2324232560e+00  3.1521879467e+31  9.2635927882e+30
  2.2381376500e+00  3.5259205585e+31  9.4967798079e+30
  2.2438520440e+00  4.1729432468e+31  9.0817334060e+30
  2.2495664380e+00  4.9857337023e+31  8.1016122320e+30
  2.2552808320e+00  5.8378941128e+31  6.7204186120e+30
  2.2609952260e+00  6.5979953447e+31  5.1531742152e+30
  2.2667096200e+00  7.1455634023e+31  3.6303123987e+30
  2.2724240140e+00  7.3870888451e+31  2.3619065617e+30
  2.2781384080e+00  7.2696131961e+31  1.5070674143e+30
  2.2838528020e+00  6.7895499320e+31  1.1527869101e+30
  2.2895671960e+00  5.9949472614e+31  1.3048742756e+30
  2.2952815900e+00  4.9803255238e+31  1.8916876415e+30
  2.3009959840e+00  3.8743786550e+31  2.7794144912e+30
  2.3067103780e+00  2.8220216173e+31  3.7959848713e+30
  2.3124247720e+00  1.9632831292e+31  4.7595483683e+30
  2.3181391660e+00  1.4121967375e+31  5.5069578678e+30
  2.3238535600e+00  1.2390013150e+31  5.9179234084e+30
  2.3295679540e+00  1.4585744426e+31  5.9313637266e+30
  2.3352823480e+00  2.0271319970e+31  5.5518332842e+30
  2.3409967420e+00  2.8479660158e+31  4.8455140402e+30
  2.3467111360e+00  3.7855597816e+31  3.9268791128e+30
  2.3524255300e+00  4.6860485742e+31  2.9385141083e+30
  2.3581399240e+00  5.4009171746e+31  2.0275216038e+30
  2.3638543180e+00  5.8102281071e+31  1.3223097762e+30
  2.3695687120e+00  5.8416688555e+31  9.1334291126e+29
  2.3752831060e+00  5.4823066023e+31  8.4066752389e+29
  2.3809975000e+00  4.7810593538e+31  1.0898615509e+30
  2.3867118940e+00  3.8413583979e+31  1.5966804232e+30
  2.3924262880e+00  2.8050540452e+31  2.2593122824e+30
  2.3981406820e+00  1.8300472875e+31  2.9560148043e+30
  2.4038550760e+00  1.0651771673e+31  3.5651559137e+30
  2.4095694700e+00  6.2637989975e+30  3.9844219006e+30
  2.4152838640e+00  5.7797374680e+30  4.1462112959e+30
  2.4209982580e+00  9.2213166525e+30  4.0269432278e+30
  2.4267126520e+00  1.5983041411e+31  3.6490481105e+30
  2.4324270460e+00  2.4927546585e+31  3.0756028728e+30
  2.4381414400e+00  3.4567288729e+31  2.3987306848e+30
  2.4438558340e+00  4.3303641702e+31  1.7238265061e+30
  2.4495702280e+00  4.9684925650e+31  1.1522546872e+30
  2.4552846220e+00  5.2641569442e+31  7.6531348968e+29
  2.4609990160e+00  5.1660079710e+31  6.1196479391e+29
  2.4667134100e+00  4.6867247560e+31  7.0214655848e+29
  2.4724278040e+00  3.9010512472e+31  1.0065402845e+30
  2.4781421980e+00  2.9337279403e+31  1.4626132173e+30
  2.4838565920e+00  1.9392498282e+31  1.9857647445e+30
  2.4895709860e+00  1.0767255510e+31  2.4836329543e+30
  2.4952853800e+00  4.8392727821e+30  2.8711763329e+30
  2.5009997740e+00  2.5476945078e+30  3.0840969014e+30
  2.5067141680e+00  4.2390927302e+30  3.0885107526e+30
  2.5124285620e+00  9.6100883250e+30  2.8854346227e+30
  2.5181429560e+00  1.7756243484e+31  2.5095281700e+30
  2.5238573500e+00  2.7319489759e+31  2.0224665410e+30
  2.5295717440e+00  3.6710168255e+31  1.5021659758e+30
  2.5352861380e+00  4.4367439678e+31  1.0297139172e+30
  2.5410005320e+00  4.9015413082e+31  6.7617015574e+29
  2.5467149260e+00  4.9872921118e+31  4.9136521812e+29
  2.5524293200e+00  4.6782368188e+31  4.9644251363e+29
  2.5581437140e+00  4.0236288420e+31  6.8124141810e+29
  2.5638581080e+00  3.1297019063e+31  1.0068104936e+30
  2.5695725020e+00  2.1422473228e+31  1.4125069302e+30
  2.5752868960e+00  1.2226490971e+31  1.8264142279e+30
  2.5810012900e+00  5.2130988510e+30  2.1773084991e+30
  2.5867156840e+00  1.5284105316e+30  2.4061995325e+30
  2.5924300780e+00  1.7711069467e+30  2.4755913947e+30
  2.5981444720e+00  5.8928804723e+30  2.3750219060e+30
  2.6038588660e+00  1.3205467348e+31  2.1220770183e+30
  2.6095732600e+00  2.2493344999e+31  1.7588271475e+30
  2.6152876540e+00  3.2213723741e+31  1.3443742280e+30
  2.6210020480e+00  4.0750997214e+31  9.4481129822e+29
  2.6267164420e+00  4.6683732013e+31  6.2228487779e+29
  2.6324308360e+00  4.9020093130e+31  4.2495662713e+29
  2.6381452300e+00  4.7362701447e+31  3.7947395134e+29
  2.6438596240e+00  4.1975483595e+31  4.8711596955e+29
  2.6495740180e+00  3.3741211848e+31  7.2415887590e+29
  2.6552884120e+00  2.4016488149e+31  1.0463077116e+30
  2.6610028060e+00  1.4407920504e+31  1.3963843563e+30
  2.6667172000e+00  6.5063557583e+30  1.7139497317e+30
  2.6724315940e+00  1.6230857627e+30  1.9452517091e+30
  2.6781459880e+00  5.7174569604e+29  2.0518708521e+30
  2.6838603820e+00  3.5321818447e+30  2.0166816408e+30
  2.6895747760e+00  1.0019089277e+31  1.8462120781e+30
  2.6952891700e+00  1.8960919776e+31  1.5690896794e+30
  2.7010035640e+00  2.8876291087e+31  1.2309057935e+30
  2.7067179580e+00  3.8118915340e+31  8.8640757395e+29
  2.7124323520e+00  4.5150603244e+31  5.9034512967e+29
  2.7181467460e+00  4.8797109543e+31  3.8849538712e+29
  2.7238611400e+00  4.8444283509e+31  3.1032659808e+29
  2.7295755340e+00  4.4141756012e+31  3.6447221800e+29
  2.7352899280e+00  3.6596637327e+31  5.3770245319e+29
  2.7410043220e+00  2.7057907925e+31  7.9749772458e+29
  2.7467187160e+00  1.7110346345e+31  1.0977376565e+30
  2.7524331100e+00  8.4119375967e+30  1.3865183966e+30
  2.7581475040e+00  2.4182226302e+30  1.6147802482e+30
  2.7638618980e+00  1.3938079446e+29  1.7443178377e+30
  2.7695762920e+00  1.9705667823e+30  1.7538705302e+30
  2.7752906860e+00  7.6239961155e+30  1.6423271438e+30
  2.7810050800e+00  1.6174460129e+31  1.4285677721e+30
  2.7867194740e+00  2.6211127772e+31  1.1480243612e+30
  2.7924338680e+00  3.6070778751e+31  8.4657811856e+29
  2.7981482620e+00  4.4113960996e+31  5.7283848291e+29
  2.8038626560e+00  4.8998263349e+31  3.7009719825e+29
  2.8095770500e+00  4.9903184227e+31  2.6928403388e+29
  2.8152914440e+00  4.6668944220e+31  2.8406579125e+29
  2.8210058380e+00  3.9825759800e+31  4.0886099896e+29
  2.8267202320e+00  3.0508236906e+31  6.2005235227e+29
  2.8324346260e+00  2.0268655438e+31  8.8014962744e+29
  2.8381490200e+00  1.0819821245e+31  1.1441748101e+30
  2.8438634140e+00  3.7500358233e+30  1.3671866747e+30
  2.8495778080e+00  2.5757441203e+29  1.5116903717e+30
  2.8552922020e+00  9.4903066737e+29  1.5537143057e+30
  2.8610065960e+00  5.7354476221e+30  1.4865728100e+30
  2.8667209900e+00  1.3844013030e+31  1.3217273265e+30
  2.8724353840e+00  2.3943913821e+31  1.0866441420e+30
  2.8781497780e+00  3.4365900872e+31  8.2004229483e+29
  2.8838641720e+00  4.3379386254e+31  5.6534952551e+29
  2.8895785660e+00  4.9481119295e+31  3.6346833399e+29
  2.8952929600e+00  5.1647325620e+31  2.4605343623e+29
  2.9010073540e+00  4.9507044905e+31  2.3040223100e+29
  2.9067217480e+00  4.3407334870e+31  3.1678018806e+29
  2.9124361420e+00  3.4358901937e+31  4.8859158403e+29
  2.9181505360e+00  2.3870615383e+31  7.1533204103e+29
  2.9238649300e+00  1.3699953655e+31  9.5780159780e+29
  2.9295793240e+00  5.5606100170e+30  1.1746906873e+30
  2.9352937180e+00  8.3586002322e+29  1.3294356217e+30
  2.9410081120e+00  3.4559677062e+29  1.3962087560e+30
  2.9467225060e+00  4.2062424229e+30  1.3640644557e+30
  2.9524369000e+00  1.1807452293e+31  1.2385775146e+30
  2.9581512940e+00  2.1910155569e+31  1.0407319808e+30
  2.9638656880e+00  3.2850234875e+31  8.0327485933e+29
  2.9695800820e+00  4.2814409531e+31  5.6516525986e+29
  2.9752944760e+00  5.0142630929e+31  3.6505710172e+29
  2.9810088700e+00  5.3606601838e+31  2.3490293957e+29
  2.9867232640e+00  5.2617724306e+31  1.9473486993e+29
  2.9924376580e+00  4.7329296865e+31  2.4947292243e+29
  2.9981520520e+00  3.8615244994e+31  3.8826753321e+29
  3.0038664460e+00  2.7928198569e+31  5.8645877066e+29
  3.0095808400e+00  1.7059915550e+31  8.0980169023e+29
  3.0152952340e+00  7.8435178214e+30  1.0202361350e+30
